-11.9	-58.59
-12.21	-62.87
-11.6	-72.02
-9.46	-80.87
-6.71	-86.36
-4.27	-86.36
-3.36	-81.18
-4.27	-72.94
-6.71	-65
-9.77	-59.81
-12.51	-58.9
-14.34	-60.42
-15.56	-62.87
-16.17	-65.31
-16.78	-67.14
-17.4	-67.75
-17.4	-65.61
-16.78	-61.34
-15.87	-57.07
-15.26	-56.76
-15.26	-62.87
-15.56	-74.46
-15.87	-88.2
-15.26	-98.88
-13.73	-102.84
-11.9	-100.1
-10.38	-92.77
-9.77	-84.23
-9.46	-76.29
-10.07	-70.19
-10.68	-66.83
-11.29	-67.14
-11.6	-70.19
-11.6	-75.99
-11.29	-83.92
-10.99	-93.99
-11.29	-105.9
-11.6	-116.58
-12.21	-121.15
-12.82	-116.27
-13.12	-104.06
-13.43	-90.03
-14.04	-79.65
-13.43	-75.68
-11.9	-78.43
-9.77	-86.67
-7.32	-97.96
-5.8	-108.95
-4.88	-114.44
-4.88	-111.69
-4.58	-101.93
-4.88	-90.64
-6.1	-83.31
-8.24	-82.4
-10.99	-85.45
-13.73	-89.72
-15.26	-93.38
-15.87	-96.44
-16.48	-99.18
-17.7	-100.4
-19.53	-100.71
-21.97	-102.84
-23.5	-109.56
-24.11	-121.15
-23.19	-133.67
-21.36	-140.08
-19.23	-133.97
-17.09	-117.19
-15.56	-97.35
-14.65	-85.75
-14.95	-86.36
-15.87	-94.6
-16.78	-101.32
-16.48	-99.79
-14.95	-90.94
-13.12	-82.7
-11.6	-81.18
-11.9	-86.06
-13.43	-93.08
-14.65	-98.88
-14.95	-102.54
-13.43	-104.37
-11.29	-104.06
-9.77	-99.79
-9.16	-91.86
-8.85	-82.4
-7.93	-75.99
-6.41	-74.46
-4.88	-77.51
-4.58	-83.31
-6.41	-90.03
-9.77	-96.44
-12.82	-101.32
-15.26	-103.76
-16.17	-102.84
-16.17	-99.49
-15.87	-95.52
-15.26	-93.08
-15.26	-93.69
-15.87	-95.83
-17.4	-95.52
-18.92	-89.72
-19.84	-79.96
-19.23	-71.11
-18.01	-67.75
-17.09	-69.27
-17.4	-72.94
-18.62	-75.07
-19.84	-76.29
-20.14	-79.96
-19.53	-89.11
-18.31	-100.1
-17.09	-104.68
-15.87	-97.96
-15.26	-82.7
-14.95	-67.75
-15.26	-63.17
-14.95	-72.02
-13.43	-86.98
-11.6	-96.13
-10.07	-92.16
-9.16	-77.82
-9.46	-61.95
-9.77	-52.19
-9.77	-50.05
-9.16	-51.57
-8.85	-51.88
-8.24	-50.66
-7.32	-50.05
-6.1	-50.05
-4.88	-49.13
-3.97	-44.86
-3.97	-36.62
-4.88	-27.16
-6.71	-20.14
-8.85	-18.31
-10.68	-23.19
-10.99	-33.26
-10.38	-46.69
-9.46	-59.81
-8.85	-69.27
-8.85	-72.94
-9.46	-72.33
-9.46	-70.19
-8.54	-68.97
-6.71	-69.27
-5.49	-69.89
-4.88	-68.66
-6.1	-63.78
-8.24	-57.07
-10.68	-51.27
-12.51	-50.05
-13.43	-54.02
-13.43	-61.04
-12.51	-66.53
-11.9	-67.44
-11.6	-63.48
-11.6	-57.68
-11.9	-54.63
-11.29	-56.76
-10.07	-62.56
-8.54	-68.36
-7.32	-69.58
-7.32	-65.92
-7.63	-61.04
-7.63	-59.81
-7.32	-63.48
-6.71	-68.36
-6.1	-68.66
-5.49	-62.56
-4.27	-53.41
-2.14	-47.91
0	-50.35
1.22	-57.68
0.31	-64.09
-2.75	-65.31
-6.1	-62.87
-9.16	-60.73
-10.38	-61.95
-10.07	-63.48
-8.85	-61.34
-7.93	-52.19
-7.32	-39.37
-7.02	-28.38
-6.71	-24.72
-5.8	-28.69
-5.19	-38.15
-3.97	-47.91
-2.14	-54.02
-0.61	-54.32
-0.31	-47.61
-2.14	-35.71
-4.58	-22.58
-6.41	-14.65
-6.41	-16.17
-4.88	-25.63
-3.36	-35.71
-3.05	-39.67
-3.05	-35.71
-3.05	-28.99
-2.14	-26.25
-1.22	-28.99
-1.53	-31.13
-2.75	-27.47
-3.36	-17.4
-3.05	-7.32
-1.22	-3.66
0.31	-8.54
0.31	-16.78
-0.31	-21.06
-0.92	-17.7
0.31	-10.38
3.36	-6.1
7.02	-9.46
10.38	-19.23
11.29	-27.77
9.16	-27.47
4.58	-16.17
-0.92	-0.92
-5.19	7.63
-6.41	3.97
-5.49	-7.93
-3.66	-18.31
-3.36	-19.23
-4.27	-9.77
-5.19	3.05
-5.19	10.99
-3.97	11.29
-2.14	7.02
-1.22	1.53
-1.83	-3.36
-3.36	-7.32
-5.19	-10.07
-6.41	-9.46
-6.41	-3.66
-4.88	5.49
-3.05	14.04
-1.22	17.4
0	14.65
1.22	9.77
2.44	6.41
3.36	6.1
3.05	8.24
1.83	10.38
0	10.07
-0.92	7.93
-1.22	5.19
-0.92	4.27
-0.31	6.41
0.61	11.29
2.44	16.48
5.19	18.92
7.63	16.78
9.46	11.29
10.07	4.58
10.68	-0.61
10.99	-2.44
10.38	0.61
8.54	10.68
5.49	25.94
2.14	39.98
-0.31	43.95
-0.92	32.65
-0.61	10.99
0	-6.41
0	-7.93
0.31	6.1
1.22	22.28
2.75	27.47
3.97	18.92
3.36	6.41
2.14	2.75
0.92	11.6
0.31	24.72
0.61	31.74
1.22	26.55
1.53	14.34
1.53	5.19
0.61	4.58
-0.31	8.24
-0.92	9.77
-0.31	7.63
2.44	6.71
6.1	12.51
8.85	24.41
9.46	32.65
7.93	28.69
6.71	-1.53
7.02	10.99
1.53	35.1
1.83	19.53
5.19	2.75
9.77	-4.88
14.34	0.31
17.09	14.65
17.4	28.69
16.48	34.48
14.95	31.43
14.65	24.41
15.26	19.84
15.26	20.45
13.73	22.28
10.38	21.06
7.02	14.95
5.49	6.41
6.71	0
8.54	-0.31
9.16	6.1
7.32	17.7
5.19	30.52
4.27	37.84
5.8	33.57
7.93	18.31
9.16	0.92
8.54	-4.88
6.71	6.41
5.19	27.77
4.58	41.81
5.19	36.01
5.19	14.34
3.97	-7.02
2.44	-11.9
2.44	2.75
4.88	26.25
8.24	43.64
10.68	44.56
10.68	32.04
9.16	16.78
8.24	9.77
8.54	13.73
8.54	21.97
7.63	25.02
5.49	17.4
3.36	5.8
3.66	0.61
6.1	10.38
11.29	35.4
18.62	71.11
26.55	115.05
31.74	173.34
29.91	262.45
20.75	406.19
11.29	618.59
12.51	881.35
31.43	1135.25
62.87	1296.69
90.03	1304.63(R)
93.08	1159.97
63.48	926.51
10.68	690
-46.08	506.59
-89.11	383.3
-110.17	296.63
-111.69	224
-99.18	159.61
-76.9	104.98
-48.83	58.59
-21.67	14.34
-2.14	-27.77
6.1	-60.42
4.27	-74.46
-1.53	-66.83
-4.58	-47
-2.75	-30.52
2.44	-28.08
7.32	-41.5
8.24	-62.26
5.19	-79.35
0.61	-86.67
-1.53	-86.98
0.31	-82.7
5.8	-71.72
10.68	-50.66
12.51	-24.72
11.6	-10.68
10.07	-23.8
10.99	-63.48
14.04	-106.2
17.4	-120.24
19.53	-92.77
20.14	-41.5
20.14	-1.53
20.75	0.92
21.67	-30.21
21.67	-66.22
20.14	-79.04
18.62	-65.61
18.62	-44.56
20.14	-35.4
22.58	-36.93
24.11	-32.65
25.02	-16.17
27.16	-2.75
31.13	-13.73
36.01	-47.3
39.67	-72.63
42.42	-55.54
44.56	4.88
48.22	69.58
52.8	91.25
57.07	57.07
58.9	-0.31
58.59	-28.69
57.68	-1.22
58.29	65.31
60.42	126.65
64.09	148.01
67.75	128.48
70.8	95.52
72.63	81.18
73.85	100.71
75.07	146.79
76.29	197.75
77.51	232.24
78.43	240.48
78.74	224.61
77.21	197.75
73.85	175.17
69.27	167.24
64.39	172.42
59.81	180.36
55.24	179.75
49.44	166.63
41.5	144.04
32.35	119.93
23.5	98.88
16.48	81.18
11.6	65
8.54	49.44
6.41	36.32
4.27	27.47
1.83	21.67
-0.61	16.78
-3.05	11.29
-5.8	5.19
-7.93	0.31
-9.16	-2.14
-9.46	-3.36
-9.16	-4.88
-8.54	-7.02
-8.85	-9.77
-9.77	-11.9
-11.6	-13.12
-13.12	-13.43
-14.04	-13.12
-14.04	-12.82
-13.73	-12.82
-12.51	-13.73
-11.9	-14.95
-11.6	-15.87
-12.51	-15.56
-13.73	-13.43
-15.56	-10.99
-16.78	-9.77
-17.09	-10.38
-16.17	-12.21
-14.04	-11.9
-10.99	-8.85
-7.63	-3.36
-5.19	2.44
-3.97	5.8
-3.97	6.41
-4.88	5.19
-6.41	3.66
-8.54	2.44
-11.6	1.83
-14.34	0.61
-17.09	-1.22
-18.62	-3.66
-18.62	-5.8
-17.09	-5.19
-14.95	-2.44
-12.82	1.83
-11.29	4.88
-10.68	4.88
-11.29	1.53
-12.21	-3.97
-12.51	-10.38
-11.9	-15.87
-10.99	-19.23
-9.77	-19.23
-9.16	-15.87
-8.85	-10.99
-9.16	-7.32
-10.07	-6.71
-10.99	-9.46
-11.9	-13.43
-12.21	-17.09
-11.9	-20.14
-13.12	-27.77
-13.73	-28.08
-13.73	-27.47
-13.43	-28.69
-12.82	-32.35
-12.21	-37.23
-11.29	-33.57
-11.29	-28.99
-14.04	-36.62
-15.56	-41.5
-17.4	-44.86
-18.92	-47
-20.14	-48.83
-20.45	-49.74
-20.14	-49.44
-18.92	-47.3
-18.31	-43.64
-17.4	-40.89
-16.78	-39.98
-15.56	-41.2
-13.73	-43.03
-12.21	-44.56
-11.6	-44.86
-12.21	-45.47
-13.43	-47.91
-15.26	-52.8
-17.7	-59.51
-19.84	-65.61
-21.97	-68.05
-23.19	-65.92
-23.5	-60.12
-22.58	-54.32
-21.67	-51.88
-20.45	-54.63
-19.53	-61.04
-18.31	-66.22
-16.48	-66.53
-14.04	-60.42
-11.6	-51.27
-10.07	-43.03
-9.46	-39.98
-10.68	-43.33
-12.21	-51.88
-11.9	-60.12
-7.63	-58.59
0.61	-33.57
9.77	29.6
14.04	140.99
10.68	307.01
4.58	525.21
6.1	776.67
22.89	1016.54
52.49	1182.25
80.26	1219.48(R)
89.11	1117.55
70.5	916.14
29.3	685.42
-19.23	483.09
-61.34	329.9
-89.42	220.64
-102.23	141.6
-100.71	83.01
-85.45	37.84
-60.12	-2.75
-31.43	-45.78
-9.46	-86.98
0	-114.75
-1.53	-121.15
-7.63	-112
-12.21	-102.54
-12.21	-104.68
-9.77	-118.71
-7.93	-135.8
-7.32	-146.48
-7.32	-146.79
-6.71	-138.24
-5.19	-126.34
-3.66	-116.27
-3.05	-111.08
-3.05	-111.39
-3.97	-115.36
-4.88	-120.85
-5.49	-126.65
-4.88	-130.92
-3.05	-131.53
-0.61	-126.65
2.14	-116.27
4.58	-101.93
6.41	-86.98
7.32	-75.68
8.24	-71.72
9.46	-75.68
10.99	-83.62
12.51	-90.03
14.04	-89.72
14.34	-81.18
12.82	-68.36
10.99	-57.98
9.77	-53.41
10.99	-55.24
14.34	-59.2
18.01	-61.65
21.36	-60.42
23.8	-56.15
25.94	-50.66
28.69	-44.25
32.65	-35.4
36.62	-22.28
40.59	-4.58
43.95	16.78
47.3	39.37
50.35	61.34
53.71	83.31
57.37	105.9
61.04	127.87
64.7	147.71
68.05	163.57
70.19	173.34
71.41	176.39
71.41	173.95
70.5	168.15
68.05	161.74
64.39	156.25
59.81	150.76
54.63	141.91
49.74	127.87
45.17	108.03
41.81	82.4
38.76	53.41
35.71	22.58
32.04	-5.19
27.16	-25.02
21.67	-36.01
15.56	-40.89
9.77	-45.78
4.27	-55.24
-0.31	-69.89
-3.66	-86.67
-6.41	-100.4
-8.24	-106.81
-9.77	-104.37
-11.29	-94.91
-12.21	-84.84
-13.12	-80.57
-14.04	-86.98
-14.95	-101.32
-15.26	-116.27
-15.26	-123.6
-14.34	-121.46
-13.73	-111.69
-14.04	-100.1
-15.56	-92.47
-17.7	-90.03
-19.84	-90.33
-20.75	-90.03
-19.84	-86.98
-18.31	-82.7
-16.78	-80.57
-16.48	-84.84
-17.09	-95.21
-17.7	-107.42
-17.7	-115.66
-17.09	-115.97
-16.17	-108.34
-15.56	-97.35
-14.95	-90.03
-14.34	-88.2
-13.43	-89.72
-12.21	-91.55
-10.38	-92.47
-8.85	-94.6
-7.32	-100.71
-4.88	-109.86
-1.83	-116.88
1.22	-117.49
3.66	-112.92
3.97	-107.73
2.14	-104.68
-1.22	-102.84
-4.88	-99.18
-7.63	-91.86
-9.46	-84.23
-10.07	-83.01
-10.38	-90.33
-10.68	-101.93
-11.9	-110.78
-13.12	-111.08
-13.73	-103.15
-13.12	-93.08
-11.9	-87.59
-10.07	-89.42
-9.16	-95.21
-9.16	-100.1
-10.68	-100.4
-12.21	-96.74
-13.73	-93.38
-13.73	-95.52
-12.82	-102.23
-12.21	-110.47
-12.51	-114.44
-14.04	-112.3
-15.87	-106.81
-16.17	-102.54
-14.95	-101.62
-12.21	-102.84
-10.38	-102.84
-9.46	-98.57
-10.07	-91.86
-10.99	-86.98
-10.68	-87.28
-8.85	-92.47
-5.8	-100.1
-2.44	-105.29
0.31	-105.9
1.83	-103.15
2.75	-101.01
3.05	-102.23
2.75	-106.51
1.83	-110.78
0	-109.86
-2.14	-101.93
-3.97	-90.03
-5.49	-80.26
-5.8	-78.74
-6.1	-86.36
-6.71	-99.79
-7.93	-111.69
-10.38	-117.19
-12.21	-115.36
-13.43	-110.47
-12.82	-108.03
-11.9	-108.64
-11.6	-110.78
-12.51	-111.08
-14.34	-107.73
-15.87	-101.62
-15.87	-95.21
-14.95	-90.64
-13.73	-88.2
-12.82	-86.98
-13.43	-87.89
-15.56	-92.47
-18.01	-100.71
-18.62	-108.34
-14.95	-101.93
-7.93	-63.48
-1.83	22.28
-0.92	165.41
-3.36	366.52
-1.22	610.35
15.26	861.51
47.91	1065.06
86.06	1163.64(R)
111.69	1127.01
110.47	973.51
80.87	758.36
34.79	541.99
-12.21	359.19
-49.74	216.37
-73.24	111.08
-82.09	38.76
-76.9	-3.97
-58.59	-29.6
-32.65	-55.24
-7.93	-88.81
6.71	-121.77
8.54	-140.99
2.75	-141.91
-3.97	-133.36
-6.41	-126.04
-5.49	-123.6
-3.97	-123.29
-4.58	-123.29
-6.41	-125.12
-7.32	-129.7
-6.71	-135.5
-4.58	-137.63
-2.44	-134.89
-1.53	-129.39
-2.14	-126.65
-3.05	-128.17
-3.97	-133.36
-3.97	-138.24
-3.05	-140.69
-2.14	-140.08
-1.22	-138.55
-0.92	-137.33
-0.92	-136.11
-0.61	-132.75
0.92	-126.34
3.05	-117.19
6.1	-107.42
9.16	-97.66
12.51	-86.98
16.17	-75.68
20.45	-65.31
24.72	-57.68
28.38	-53.71
30.82	-50.05
31.74	-43.64
32.04	-33.87
32.04	-21.36
32.65	-9.16
33.57	0.92
35.1	8.85
37.84	15.26
41.81	20.75
47.61	25.94
54.32	32.35
60.42	40.59
65.31	51.57
68.36	65.31
70.5	80.87
72.63	96.74
75.07	111.69
77.51	125.73
79.65	139.77
80.87	154.72
79.96	169.37
77.21	180.05
72.94	184.33
67.75	180.05
63.17	167.24
58.29	147.4
52.8	122.68
45.78	94.91
37.84	67.14
30.52	41.2
24.41	19.84
20.14	3.97
17.09	-6.71
14.95	-14.34
13.73	-22.58
12.82	-32.96
12.21	-45.78
11.29	-57.98
9.77	-67.14
7.63	-71.41
5.49	-73.24
3.36	-74.16
2.14	-75.07
0.92	-74.16
0.31	-71.11
-0.61	-67.44
-1.22	-65.31
-2.44	-67.14
-3.97	-72.02
-6.41	-76.9
-8.54	-79.35
-9.46	-78.74
-9.16	-75.99
-8.24	-73.55
-7.93	-72.33
-7.32	-72.63
-6.71	-72.63
-5.19	-70.19
-3.36	-64.39
-1.83	-57.07
-0.61	-51.57
0.61	-49.44
2.14	-51.27
3.05	-54.32
2.14	-56.15
-0.31	-54.32
-3.05	-49.74
-4.58	-43.33
-4.58	-38.15
-3.36	-37.54
-1.83	-41.5
-0.92	-46.69
-0.92	-49.44
-2.14	-48.22
-3.66	-45.47
-4.27	-46.69
-2.75	-53.1
0.31	-60.42
3.05	-62.56
4.58	-57.07
5.19	-46.08
6.41	-36.32
9.16	-33.26
12.21	-37.54
13.73	-44.86
12.82	-49.74
10.38	-48.83
7.32	-42.42
4.27	-34.48
1.83	-29.6
0	-29.6
-1.22	-33.26
-2.14	-38.15
-3.36	-40.59
-4.58	-40.28
-5.19	-37.54
-4.27	-33.87
-2.44	-30.21
-0.31	-27.77
0.31	-27.77
-0.61	-30.82
-2.14	-35.71
-3.66	-41.2
-4.58	-45.47
-4.58	-47.91
-3.97	-48.52
-2.75	-47
-1.53	-43.03
-0.92	-37.54
-1.22	-32.96
-2.14	-31.43
-2.14	-32.96
-0.31	-36.93
2.14	-40.59
4.27	-42.72
4.27	-43.64
2.44	-43.64
-0.61	-43.03
-3.05	-41.81
-4.58	-39.67
-4.88	-36.62
-4.27	-33.87
-3.36	-33.57
-1.53	-36.62
1.83	-41.2
5.49	-43.64
8.54	-41.5
9.77	-35.1
7.93	-27.77
3.66	-22.89
-1.22	-22.28
-5.49	-25.33
-7.32	-29.91
-6.71	-34.79
-4.88	-37.84
-2.44	-37.54
-0.92	-33.87
0	-29.6
0	-27.47
-0.61	-28.69
-1.53	-30.82
-2.44	-31.43
-3.36	-29.91
-3.97	-27.47
-3.66	-25.94
-2.14	-25.33
-0.61	-24.11
0	-21.36
-0.61	-19.84
-2.44	-21.97
-3.05	-28.99
-2.14	-38.45
0.31	-45.47
2.75	-46.69
3.97	-41.5
3.36	-32.96
2.44	-25.33
1.83	-21.36
2.14	-21.67
4.27	-23.5
7.32	-24.72
9.77	-25.94
10.99	-28.38
10.99	-31.13
10.07	-30.52
9.16	-24.72
9.46	-16.17
10.99	-12.51
12.82	-18.92
13.12	-30.82
11.6	-37.23
8.85	-31.43
7.63	-16.17
8.54	-4.27
10.99	-4.58
12.51	-15.87
11.29	-28.08
7.63	-31.43
3.66	-24.11
1.53	-11.6
2.44	-1.53
4.58	1.22
6.41	-3.36
7.32	-10.99
7.32	-17.09
7.02	-18.31
7.02	-15.26
7.63	-11.9
8.24	-10.68
7.93	-11.29
6.71	-10.07
4.27	-4.58
1.22	0.61
-1.22	0.31
-1.53	-8.54
0.61	-22.89
3.97	-32.35
6.71	-28.38
7.63	-13.12
7.02	3.05
6.71	9.46
7.02	1.53
7.93	-14.04
7.93	-26.86
6.71	-30.52
5.19	-25.63
4.88	-16.48
7.02	-6.1
11.6	5.49
17.4	14.65
21.67	18.01
23.19	12.51
20.75	-0.92
15.87	-15.87
10.38	-22.89
6.71	-16.48
4.88	1.53
3.97	21.67
2.75	32.96
2.75	28.38
5.19	17.4
10.68	23.19
17.4	71.72
21.67	177.31
21.67	343.32
20.75	561.83
25.63	811.16
43.03	1050.42
71.11	1219.18
97.96	1260.38(R)
106.81	1157.23
86.36	950.01
38.15	715.03
-21.06	515.75
-73.55	371.09
-105.29	268.86
-114.14	191.96
-105.29	133.36
-84.84	89.11
-58.9	49.44
-31.74	3.05
-9.16	-42.72
4.58	-64.7
9.46	-48.52
8.54	-11.9
6.1	7.32
4.88	-17.09
5.19	-74.77
5.49	-127.87
5.19	-144.35
5.19	-117.8
7.63	-66.83
12.21	-19.53
18.92	2.75
25.02	-9.46
29.3	-50.66
30.82	-100.1
29.6	-130.31
25.94	-122.68
21.06	-78.43
16.78	-20.14
14.65	21.97
15.56	25.63
18.01	-12.82
19.53	-74.16
18.92	-126.04
16.48	-140.08
13.73	-108.95
11.9	-52.19
12.51	-3.05
14.95	10.68
18.92	-15.56
22.89	-61.04
25.33	-94.3
25.94	-93.99
25.33	-61.34
25.63	-16.17
27.47	17.09
30.82	25.94
34.18	16.17
36.32	3.97
36.93	2.44
37.84	14.34
39.98	35.71
43.95	61.04
49.44	86.36
55.54	106.81
61.65	118.71
67.14	121.46
71.11	120.24
74.16	122.68
76.29	135.8
78.74	159.3
82.7	187.07
87.59	212.1
92.16	229.19
95.21	236.82
96.13	236.82
94.3	231.63
90.33	222.47
84.23	210.27
75.99	194.09
65.92	174.26
55.24	152.59
45.17	130.92
35.71	110.47
27.47	91.55
20.45	72.94
15.26	54.63
11.29	37.84
8.24	24.41
4.88	15.56
1.53	10.99
-2.44	7.93
-6.1	3.36
-9.16	-4.27
-11.9	-14.34
-13.73	-24.11
-14.65	-30.82
-14.65	-32.65
-14.04	-30.52
-13.73	-26.55
-13.73	-22.58
-14.34	-19.84
-15.26	-19.23
-16.17	-19.53
-16.48	-20.75
-16.78	-21.36
-16.48	-21.06
-15.87	-20.14
-15.26	-19.23
-14.04	-19.23
-13.12	-20.14
-11.9	-20.14
-10.68	-18.31
-8.85	-14.65
-7.02	-11.6
-5.19	-9.77
-3.97	-10.38
-3.66	-11.29
-3.97	-11.29
-4.58	-8.85
-5.49	-5.8
-6.71	-3.05
-8.24	-3.05
-9.46	-5.49
-9.77	-9.16
-9.46	-11.6
-9.46	-11.9
-10.68	-10.07
-12.82	-8.85
-15.26	-10.99
-16.78	-16.17
-16.78	-21.97
-15.56	-24.11
-13.73	-21.06
-12.21	-14.65
-10.99	-9.77
-10.68	-10.07
-11.29	-15.56
-11.9	-22.58
-12.21	-25.63
-12.21	-22.89
-11.9	-16.78
-11.9	-12.82
-11.6	-14.65
-11.29	-21.67
-10.99	-28.69
-10.68	-30.52
-10.07	-25.63
-9.46	-17.7
-8.54	-11.9
-7.02	-11.9
-4.88	-18.01
-2.75	-27.16
-1.53	-35.71
-1.83	-40.59
-3.05	-40.89
-4.88	-38.15
-7.32	-36.62
-10.07	-39.67
-12.82	-47.61
-15.26	-56.76
-16.48	-63.48
-16.78	-66.22
-16.48	-65.92
-16.17	-64.39
-16.17	-62.56
-16.78	-60.12
-17.4	-57.37
-18.01	-56.15
-18.01	-59.51
-17.7	-66.22
-17.7	-73.24
-18.31	-76.29
-18.62	-74.16
-18.92	-68.97
-18.62	-64.7
-18.31	-64.09
-18.01	-67.75
-18.31	-74.46
-18.62	-83.01
-18.92	-91.86
-18.62	-98.57
-18.01	-100.4
-18.01	-96.44
-18.62	-88.2
-19.53	-79.04
-20.45	-73.24
-19.84	-72.94
-18.31	-78.13
-16.48	-85.14
-14.34	-91.25
-12.82	-94.6
-10.99	-94.91
-9.46	-92.47
-7.63	-89.11
-6.41	-85.14
-6.1	-79.65
-7.02	-73.24
-8.85	-66.83
-11.29	-62.87
-13.43	-62.26
-15.26	-66.22
-15.87	-73.55
-15.56	-81.48
-14.65	-86.98
-13.43	-88.81
-13.43	-87.28
-14.04	-85.75
-15.26	-86.06
-15.56	-89.42
-15.26	-94.6
-14.65	-99.49
-14.34	-101.32
-14.04	-99.79
-13.43	-95.83
-12.21	-92.47
-10.38	-93.69
-9.46	-100.4
-10.07	-108.64
-12.51	-111.08
-15.87	-104.37
-18.92	-90.94
-20.75	-78.13
-21.36	-71.41
-20.45	-71.72
-18.62	-75.68
-17.4	-80.26
-17.09	-84.23
-17.7	-87.89
-18.62	-90.94
-18.31	-90.64
-17.09	-84.84
-15.26	-75.38
-14.04	-66.53
-14.04	-64.39
-14.65	-71.41
-14.65	-83.31
-14.04	-92.47
-12.21	-92.47
-10.99	-83.62
-10.99	-73.55
-12.51	-69.89
-14.95	-74.46
-16.48	-81.48
-17.09	-84.84
-16.48	-82.4
-16.17	-80.57
-16.17	-85.45
-16.48	-97.96
-16.48	-110.78
-16.48	-115.05
-16.17	-105.9
-15.56	-88.2
-15.26	-72.33
-14.34	-65.92
-14.04	-69.58
-14.04	-78.43
-14.65	-85.75
-15.87	-86.36
-16.78	-81.48
-17.7	-74.77
-18.01	-71.41
-18.01	-73.24
-18.01	-77.82
-18.01	-81.48
-18.31	-82.7
-18.92	-83.62
-19.53	-89.11
-19.23	-83.92
-18.62	-80.26
-18.01	-83.92
-16.78	-94.91
-14.65	-105.29
-11.9	-105.29
-9.16	-91.86
-7.02	-72.33
-6.71	-58.59
-7.93	-57.07
-10.07	-65.31
-12.21	-74.77
-13.73	-76.9
-14.65	-70.8
-14.95	-61.65
-14.95	-55.24
-14.65	-54.93
-14.04	-58.9
-13.12	-64.39
-11.6	-69.89
-10.07	-76.6
-9.46	-85.45
-9.77	-93.99
-10.38	-97.66
-10.68	-93.99
-10.68	-83.92
-10.38	-72.94
-10.07	-67.44
-10.38	-72.02
-10.68	-84.53
-10.38	-98.57
-9.77	-106.81
-9.46	-104.37
-9.77	-92.16
-10.99	-75.38
-12.51	-61.34
-13.12	-56.76
-12.51	-64.39
-11.6	-81.18
-10.68	-98.27
-10.38	-106.2
-10.38	-99.49
-10.07	-81.79
-8.24	-63.48
-5.49	-53.41
-2.75	-53.41
-0.61	-57.68
0.31	-58.29
-0.31	-51.88
-1.22	-43.95
-2.44	-41.2
-3.66	-47.91
-4.88	-59.2
-6.1	-68.05
-7.32	-69.89
-8.54	-66.22
-9.16	-63.78
-9.16	-65.92
-8.54	-70.19
-7.32	-71.72
-6.41	-66.83
-6.41	-59.51
-7.02	-57.98
-7.93	-66.53
-8.24	-79.96
-8.24	-88.81
-7.32	-86.06
-6.41	-73.85
-5.49	-60.12
-5.19	-52.19
-5.8	-50.66
-7.32	-50.96
-8.85	-50.66
-10.38	-50.96
-11.29	-54.02
-11.29	-60.12
-10.38	-65
-8.85	-64.39
-7.63	-57.68
-7.02	-49.13
-7.32	-43.95
-8.24	-45.17
-8.54	-51.88
-8.54	-60.73
-7.93	-69.58
-7.32	-75.38
-6.41	-76.6
-5.49	-71.72
-3.66	-61.65
-1.22	-49.74
1.83	-40.89
4.88	-38.15
7.02	-41.81
7.32	-48.22
5.49	-53.71
2.44	-56.15
-0.61	-54.93
-3.05	-49.74
-5.19	-42.11
-6.71	-34.48
-6.71	-30.82
-3.66	-29.3
1.83	-19.84
7.32	14.65
7.93	94.6
2.44	234.99
-4.27	438.23
-1.22	686.65
18.62	939.33
52.8	1134.95
86.98	1214.29(R)
102.84	1150.82
90.03	970.15
53.1	736.39
6.1	517.27
-37.54	349.12
-69.27	234.07
-86.98	153.81
-90.33	90.94
-79.04	36.62
-55.85	-13.73
-28.38	-60.12
-6.41	-97.35
3.36	-117.19
1.83	-116.58
-4.88	-104.06
-9.46	-93.38
-9.46	-93.38
-5.49	-101.62
-1.22	-110.47
1.22	-114.14
1.53	-114.44
1.22	-114.75
1.22	-115.97
2.14	-115.66
3.05	-112.92
3.36	-110.17
2.14	-111.69
-0.31	-116.88
-3.66	-121.77
-5.49	-122.68
-5.8	-119.32
-5.19	-115.97
-3.97	-116.58
-2.75	-120.24
-2.14	-122.68
-1.22	-119.32
-0.31	-111.69
0.61	-104.37
0.61	-99.79
0.92	-97.35
1.22	-93.38
2.75	-87.28
5.49	-82.09
8.54	-82.4
11.29	-87.28
13.73	-90.94
15.56	-86.98
17.7	-74.46
20.45	-58.29
23.5	-44.86
26.25	-38.15
28.69	-36.62
31.13	-36.01
34.48	-30.82
38.45	-17.7
43.03	3.05
47.3	27.16
51.27	48.52
55.24	65
59.81	77.51
64.09	90.03
68.36	104.68
71.41	119.93
73.55	134.58
74.46	148.01
74.46	162.66
73.55	179.75
72.02	198.06
69.89	212.71
67.44	218.2
65.31	212.4
62.56	196.84
58.9	175.48
54.02	152.59
47.3	130
39.98	108.34
32.96	86.98
27.16	66.22
21.97	46.39
17.09	27.77
11.9	10.99
7.32	-4.58
3.66	-18.31
1.53	-30.21
0.31	-40.28
-0.92	-47.3
-2.75	-50.66
-5.19	-50.35
-7.02	-49.44
-7.93	-50.66
-7.02	-56.15
-5.8	-63.48
-4.88	-68.36
-4.58	-67.14
-3.97	-61.65
-3.36	-56.76
-2.44	-57.37
-1.83	-62.56
-1.22	-67.75
-1.22	-67.44
-0.61	-61.04
0.61	-53.1
2.75	-49.74
4.27	-52.8
3.66	-58.9
1.83	-61.95
0	-57.68
-0.31	-47
0.92	-33.87
2.14	-23.8
1.22	-20.14
-1.53	-24.41
-4.88	-33.57
-7.02	-42.42
-7.32	-47.3
-6.1	-45.47
-4.58	-39.06
-3.36	-32.96
-2.75	-29.6
-2.75	-29.6
-2.75	-31.43
-2.14	-32.65
-1.22	-33.26
-0.31	-34.79
-0.31	-37.23
-0.92	-40.59
-2.14	-42.11
-3.05	-41.2
-3.36	-38.76
-2.44	-37.54
-0.92	-39.06
0.61	-42.42
1.53	-44.25
0.92	-42.11
-0.31	-37.54
-1.83	-34.48
-2.44	-36.62
-2.14	-44.56
-1.22	-54.63
-1.53	-60.42
-2.14	-58.29
-2.75	-48.52
-2.14	-36.32
-0.61	-27.77
1.53	-25.63
3.36	-29.3
4.27	-35.1
3.97	-40.89
3.36	-45.47
2.75	-48.22
2.44	-49.13
2.14	-46.39
1.22	-42.11
-0.92	-38.45
-3.36	-37.23
-4.58	-37.23
-4.58	-35.1
-3.66	-28.99
-3.66	-21.67
-5.19	-20.14
-7.63	-28.99
-9.46	-46.69
-10.99	-65.31
-11.9	-72.94
-12.82	-63.17
-12.51	-39.98
-10.68	-16.78
-7.02	-6.1
-3.66	-12.21
-2.75	-27.77
-4.58	-42.11
-8.24	-49.44
-10.99	-50.35
-12.21	-49.13
-11.9	-48.52
-10.99	-48.22
-10.99	-48.22
-11.9	-49.13
-13.12	-50.66
-14.04	-50.35
-14.34	-44.86
-13.43	-35.71
-11.6	-26.86
-10.68	-25.02
-10.68	-32.35
-11.29	-43.64
-12.21	-50.96
-13.12	-48.52
-13.43	-38.15
-12.82	-26.55
-11.29	-21.67
-9.16	-26.86
-7.02	-37.54
-5.8	-47
-6.41	-49.74
-8.54	-45.17
-10.38	-35.71
-10.99	-25.02
-10.07	-16.48
-8.85	-12.51
-8.85	-14.34
-10.99	-21.06
-14.65	-29.3
-17.7	-35.71
-18.31	-37.23
-16.78	-34.48
-14.65	-30.21
-12.82	-29.3
-12.51	-32.65
-13.43	-37.84
-14.95	-40.28
-16.17	-37.84
-16.78	-32.96
-16.17	-31.13
-14.34	-34.48
-11.29	-39.98
-9.16	-41.81
-7.93	-38.15
-8.85	-31.13
-10.68	-25.94
-12.51	-25.94
-14.34	-30.21
-16.17	-36.01
-18.31	-40.59
-19.53	-43.33
-19.23	-45.17
-17.09	-45.17
-14.34	-42.72
-11.9	-36.32
-10.07	-27.77
-8.54	-20.14
-7.63	-16.48
-6.71	-18.31
-6.41	-23.19
-5.49	-27.77
-3.66	-30.82
-1.22	-32.65
0.31	-33.26
0.31	-31.74
-2.14	-28.99
-4.88	-26.55
-6.71	-24.72
-7.02	-23.5
-7.02	-22.28
-7.02	-20.75
-7.02	-18.92
-6.71	-18.01
-5.8	-17.4
-4.88	-18.01
-4.58	-21.36
-5.49	-27.77
-7.32	-32.35
-9.16	-31.13
-10.07	-23.5
-9.46	-13.73
-8.85	-8.85
-8.85	-11.29
-9.46	-18.92
-10.07	-27.16
-9.77	-33.26
-8.54	-36.01
-7.02	-33.87
-6.1	-27.16
-6.41	-19.23
-7.63	-14.65
-9.46	-15.56
-10.38	-18.01
-10.07	-18.01
-8.85	-13.73
-7.02	-7.93
-5.8	-6.41
-4.58	-9.16
-3.05	-12.21
-0.92	-12.21
1.22	-10.07
3.66	-8.54
6.1	-7.02
8.24	-1.83
9.77	9.77
8.24	23.5
3.05	28.38
-4.58	16.17
-10.07	-6.71
-10.07	-20.14
-2.14	0.92
10.38	72.94
20.75	197.14
24.11	367.13
22.89	574.34
25.02	805.36
39.98	1028.44
66.83	1191.41
93.08	1243.29(R)
100.71	1165.16
79.04	987.24
32.04	771.18
-23.5	573.43
-70.8	417.79
-100.71	299.38
-112.3	208.44
-109.25	139.47
-94.3	89.42
-69.58	49.74
-39.98	10.07
-13.43	-27.77
1.83	-50.96
4.88	-52.8
0	-40.89
-6.1	-34.79
-7.93	-47.3
-5.49	-71.72
-2.44	-88.81
0	-87.89
1.53	-76.6
3.36	-68.05
5.49	-67.75
7.32	-70.19
7.32	-65.61
6.71	-53.1
6.71	-45.78
7.63	-55.24
8.85	-74.46
9.16	-83.92
8.54	-67.14
7.93	-28.99
7.63	3.66
7.93	1.83
9.16	-36.01
10.07	-81.48
10.99	-99.79
11.6	-76.6
12.21	-31.43
13.43	-1.22
15.56	-7.93
18.31	-39.37
19.84	-63.17
19.23	-54.93
17.09	-20.45
15.56	9.77
16.48	9.16
20.75	-17.4
25.63	-39.06
29.3	-28.99
30.52	10.68
30.21	49.74
31.13	58.9
33.87	35.71
38.15	7.02
42.72	3.66
46.69	34.18
49.74	80.57
52.19	117.19
54.93	131.53
57.68	131.53
61.04	132.45
63.78	145.87
66.83	170.29
69.58	197.14
71.72	217.9
73.55	230.1
73.55	235.29
71.72	235.6
-9.16	-159.3
-9.46	-158.69
-9.77	-163.88
-10.38	-176.39
-10.68	-191.65
-10.99	-201.42
-11.9	-201.11
-13.43	-193.18
-14.65	-183.72
-15.56	-179.14
-15.87	-180.05
-15.56	-182.5
-14.95	-183.72
-14.95	-183.41
-15.26	-183.41
-16.17	-184.94
-17.09	-187.07
-21.67	-191.96
-23.8	-204.47
-23.8	-210.88
-24.41	-214.54
-25.02	-215.76
-25.02	-211.49
-24.72	-201.72
-24.41	-191.96
-24.41	-188.9
-24.41	-196.53
-24.72	-211.18
-24.41	-224.91
-23.8	-229.8
-22.58	-224
-21.06	-213.32
-19.23	-205.08
-17.7	-204.16
-16.48	-207.82
-15.87	-210.88
-16.17	-209.66
-16.48	-205.08
-16.78	-201.42
-16.17	-200.81
-16.17	-202.64
-16.78	-204.47
-18.62	-203.86
-21.67	-200.2
-24.41	-196.23
-24.41	-196.23
-25.33	-192.87
-25.33	-192.87
-21.36	-194.4
-21.36	-194.4
-20.14	-194.7
-20.14	-194.7
-22.58	-191.96
-23.19	-190.43
-22.89	-192.87
-22.89	-199.58
-23.19	-207.82
-23.8	-211.79
-24.41	-206.91
-24.41	-195.01
-25.33	-181.88
-26.86	-173.34
-28.69	-170.29
-29.91	-170.59
-29.91	-172.12
-28.38	-174.26
-26.86	-176.7
-25.33	-178.22
-24.72	-177.31
-24.72	-171.2
-24.72	-161.74
-24.41	-153.81
-24.11	-154.11
-22.89	-164.18
-21.06	-178.22
-18.31	-187.99
-15.56	-187.38
-12.82	-177.31
-11.29	-164.79
-11.9	-158.39
-14.04	-159.61
-16.78	-165.1
-18.92	-169.37
-19.53	-170.29
-19.53	-168.46
-20.14	-165.41
-21.06	-162.05
-22.28	-158.69
-22.28	-155.03
-21.67	-151.37
-19.84	-148.93
-18.31	-147.09
-17.4	-145.26
-17.4	-144.35
-17.7	-144.65
-18.31	-144.35
-18.62	-142.52
-19.23	-139.47
-20.14	-136.72
-21.06	-137.94
-21.06	-143.43
-20.45	-151.06
-19.84	-155.94
-19.23	-155.33
-19.53	-150.76
-19.84	-145.57
-19.84	-144.04
-19.53	-146.48
-18.92	-149.23
-18.62	-150.76
-18.92	-150.45
-19.23	-151.06
-18.92	-153.5
-18.01	-155.64
-17.7	-152.28
-18.62	-142.52
-20.14	-129.7
-20.75	-119.63
-18.92	-118.1
-15.26	-126.34
-11.29	-139.16
-8.85	-150.15
-8.54	-154.42
-9.16	-151.37
-10.38	-142.52
-11.29	-132.45
-12.82	-124.21
-14.95	-119.32
-17.4	-117.49
-19.53	-118.41
-20.75	-120.24
-20.45	-122.07
-19.23	-124.51
-17.7	-127.26
-16.78	-128.48
-16.48	-126.34
-16.78	-120.24
-17.4	-112.92
-17.4	-108.03
-17.09	-108.64
-17.09	-114.75
-16.78	-122.07
-17.09	-125.73
-17.09	-123.9
-17.4	-119.02
-17.7	-115.66
-18.01	-116.58
-17.7	-120.85
-17.4	-126.34
-17.09	-129.39
-17.09	-128.17
-17.7	-122.99
-18.01	-114.75
-17.4	-105.9
-16.48	-99.79
-15.87	-99.49
-16.48	-106.2
-17.4	-117.19
-17.4	-128.17
-15.56	-133.06
-12.21	-129.39
-8.85	-118.1
-7.02	-103.76
-6.41	-92.47
-7.02	-87.89
-7.63	-89.11
-7.63	-93.08
-7.63	-97.66
-8.24	-100.4
-8.85	-101.01
-10.07	-98.57
-11.29	-94.3
-12.51	-90.64
-13.43	-92.16
-14.04	-98.57
-13.73	-104.98
-13.12	-107.42
-11.9	-104.68
-10.99	-101.01
-10.68	-101.01
-10.68	-104.06
-11.29	-105.9
-12.51	-101.32
-13.73	-91.25
-14.95	-80.57
-15.87	-74.46
-15.87	-74.77
-15.56	-79.96
-14.95	-86.36
-14.04	-90.94
-13.43	-92.16
-12.82	-89.72
-12.82	-84.23
-13.12	-77.82
-13.43	-73.55
-14.34	-73.85
-15.87	-80.26
-17.4	-91.25
-16.17	-99.79
-10.38	-94.6
-1.83	-61.34
5.49	14.34
6.41	143.74
2.44	332.34
2.75	568.85
18.01	817.87
49.74	1022.64
85.75	1123.96(R)
106.81	1091.31
97.96	941.77
59.2	734.25
6.1	532.84
-44.25	374.15
-80.26	260.62
-99.79	175.78
-103.76	103.45
-93.69	38.15
-71.72	-19.23
-43.64	-67.14
-18.92	-105.59
-5.19	-131.53
-3.66	-142.52
-7.93	-141.3
-11.6	-136.41
-10.99	-134.89
-7.93	-139.47
-5.8	-145.57
-6.71	-147.09
-9.16	-140.38
-11.29	-129.7
-11.6	-122.38
-10.99	-123.6
-10.07	-131.84
-9.46	-140.08
-8.85	-141.91
-8.24	-135.5
-7.02	-124.21
-5.19	-113.83
-3.66	-106.81
-1.83	-103.45
-0.31	-103.15
1.53	-106.2
4.27	-114.14
8.24	-124.82
12.82	-134.58
16.78	-139.47
19.53	-137.94
20.75	-132.45
20.45	-126.34
20.14	-121.77
20.14	-119.63
19.84	-117.8
18.92	-115.36
16.48	-110.78
13.43	-104.68
11.9	-97.96
12.82	-91.86
15.56	-86.98
18.92	-83.31
21.06	-79.96
21.67	-73.85
21.67	-63.78
21.97	-51.27
22.89	-39.67
24.41	-31.43
26.55	-25.02
28.38	-16.78
30.21	-3.05
32.35	14.95
34.18	32.65
36.62	46.08
39.67	55.24
43.33	64.7
47	79.04
50.05	99.18
51.57	122.07
52.49	142.52
54.02	159
57.37	173.34
62.26	190.43
67.44	211.18
71.41	231.32
73.85	243.84
74.16	242.92
72.94	229.49
71.11	209.66
68.66	190.73
66.22	177.31
63.48	168.76
60.12	162.66
55.54	155.94
50.96	146.18
47.61	132.45
45.17	115.66
43.33	98.88
40.28	87.89
36.01	85.45
30.82	90.03
25.63	95.21
21.97	94.6
19.23	88.2
17.4	80.26
16.17	76.29
15.56	76.9
14.95	77.51
14.34	73.55
14.04	63.78
14.34	53.1
15.56	47.3
16.78	50.35
16.78	59.51
14.65	69.58
11.9	73.24
9.77	66.53
10.38	51.27
13.73	34.48
17.4	24.11
20.14	23.5
21.36	28.99
21.97	32.96
21.67	29.3
21.06	18.31
20.45	5.49
19.53	-3.66
18.92	-7.02
18.62	-4.58
18.31	-0.31
18.31	2.14
18.62	-0.92
18.92	-8.85
18.92	-18.31
18.31	-23.8
18.01	-21.97
18.62	-12.82
20.75	-0.92
23.19	2.75
23.5	-17.7
17.09	-76.9
-0.31	-181.58
-30.21	-326.23
-70.5	-495.61
-113.83	-667.72
-146.79	-817.87
-158.08	-924.07
-143.13	-975.95
-111.08	-982.06
-80.26	-964.97
-68.05	-942.38
-81.18	-911.87
-112.61	-853.88
-150.45	-757.45
-185.24	-637.21
-216.37	-529.79
-245.36	-465.7
-273.13	-449.83
-300.29	-462.04
-325.62	-474.85
-344.85	-469.06
-350.34	-440.98
-332.64	-395.51
-289	-340.27
-229.49	-284.73
-174.87	-237.43
-142.82	-203.25
-136.72	-180.36
-144.96	-159.91
-151.67	-130.92
-147.4	-87.59
-132.75	-34.18
-111.08	18.92
-85.45	64.09
-54.93	101.62
-21.67	138.24
10.07	178.53
34.48	218.81
50.05	253.6
57.68	279.85
62.26	300.9
66.83	321.04
73.24	340.27
80.57	354.61
88.5	362.85
95.21	368.04
99.49	377.2
101.01	397.03
101.32	428.77
102.23	466.92
105.29	502.62
110.78	527.95
117.8	542.91
124.82	555.73
129.7	578
133.06	615.23
136.11	659.48
140.38	696.72
147.71	720.21
157.47	734.56
166.93	753.78
174.87	787.35
180.97	831.3
185.85	872.5
191.35	898.13
197.75	899.96
203.86	878.3
209.05	840.15
213.01	797.73
216.67	765.08
219.42	749.51
221.56	743.41
221.56	729.37
218.81	694.27
213.32	641.48
205.08	588.07
195.01	549.32
184.63	524.9
173.34	500.79
162.05	463.56
150.15	413.82
138.24	366.21
126.65	332.34
115.66	310.36
106.2	287.78
98.27	256.04
91.25	220.03
83.92	193.18
75.38	181.88
66.22	177.31
56.76	161.13
48.52	124.21
41.5	76.6
34.18	36.62
26.25	14.34
18.92	4.27
13.43	-7.02
10.07	-24.11
7.32	-40.59
3.97	-47.61
-0.92	-48.83
-5.8	-55.54
-10.99	-73.24
-16.48	-93.08
-21.36	-100.1
-22.89	-88.81
-19.53	-71.11
-11.9	-65.61
-4.58	-80.57
-1.53	-107.73
-3.97	-131.84
-9.46	-142.52
-14.65	-138.85
-17.7	-126.95
-19.23	-114.44
-20.14	-108.34
-20.75	-111.39
-20.45	-121.46
-18.62	-131.53
-14.95	-137.02
-11.29	-137.33
-10.38	-135.8
-14.04	-136.72
-20.45	-139.16
-25.94	-141.91
-27.16	-143.13
-23.8	-143.13
-19.84	-140.38
-19.84	-135.19
-24.11	-130.92
-30.52	-132.14
-34.79	-140.99
-36.01	-152.89
-34.18	-157.17
-31.13	-148.32
-28.08	-133.06
-25.94	-123.6
-25.63	-127.56
-27.77	-142.21
-31.74	-156.86
-34.79	-163.57
-34.79	-162.35
-31.13	-158.39
-25.94	-154.42
-21.97	-151.37
-20.14	-149.23
-20.45	-148.62
-22.58	-150.15
-25.02	-152.59
-27.77	-153.5
-29.6	-152.28
-29.91	-149.23
-28.08	-144.04
-25.94	-137.02
-32.04	-145.57
-34.79	-169.37
-34.48	-186.77
-31.43	-183.11
-28.99	-155.94
-29.3	-122.99
-31.43	-109.86
-33.57	-126.65
-34.18	-158.39
-33.57	-177
-32.96	-166.32
-32.65	-137.02
-32.96	-115.66
-33.26	-118.41
-33.87	-137.63
-33.57	-151.67
-32.35	-147.09
-29.91	-132.14
-28.38	-129.09
-28.69	-145.87
-31.43	-169.07
-34.79	-174.87
-36.93	-152.28
-36.62	-114.14
-34.48	-89.72
-31.43	-100.1
-28.38	-135.8
-25.94	-163.57
-25.02	-155.33
-25.02	-114.14
-25.33	-73.55
-24.72	-71.11
-23.8	-114.44
-22.89	-170.9
-22.58	-195.01
-23.5	-167.85
-25.33	-110.17
-27.77	-65.31
-30.21	-65.31
-31.43	-108.95
-31.43	-162.96
-30.52	-187.99
-29.91	-166.93
-30.52	-115.66
-31.43	-71.41
-31.74	-64.7
-30.52	-97.96
-27.77	-145.26
-25.63	-171.81
-25.33	-161.44
-27.16	-127.56
-30.52	-98.27
-32.04	-93.38
-30.82	-112.92
-28.69	-138.85
-27.47	-150.76
-28.69	-141.91
-31.13	-121.15
-32.35	-105.9
-31.43	-107.12
-29.6	-123.29
-28.69	-141.3
-29.3	-147.71
-30.21	-136.11
-30.52	-112.61
-30.21	-88.81
-29.6	-75.07
-28.69	-73.24
-27.77	-79.65
-26.25	-88.2
-24.11	-95.21
-22.58	-98.88
-21.67	-100.4
-21.67	-100.71
-22.89	-99.18
-24.72	-95.21
-26.55	-88.81
-27.77	-83.01
-27.77	-81.18
-26.86	-85.45
-26.25	-94.3
-26.55	-102.54
-27.16	-105.59
-27.77	-101.62
-28.08	-93.69
-27.47	-85.45
-26.55	-79.96
-25.94	-77.51
-25.94	-77.51
-25.94	-78.74
-26.25	-80.57
-26.55	-81.48
-26.55	-81.18
-26.25	-79.04
-25.33	-75.99
-23.8	-73.85
-22.58	-73.24
-21.67	-74.46
-21.36	-75.99
-21.06	-77.21
-20.45	-77.21
-19.84	-76.29
-18.92	-74.46
-18.31	-71.72
-18.01	-68.97
-17.7	-66.83
-17.09	-65.92
-16.17	-66.83
-14.65	-67.75
-13.43	-67.14
-12.21	-64.7
-12.51	-61.04
-13.73	-57.68
-16.17	-55.54
-18.62	-54.93
-20.75	-54.02
-22.58	-52.8
-24.41	-51.88
-26.86	-52.49
-28.08	-53.71
-26.25	-48.52
-20.14	-23.8
-13.12	34.79
-9.16	139.77
-10.68	300.29
-12.82	513.61
-6.71	755.92
13.43	978.09
42.42	1116.94
65.31	1126.10(R)
64.7	1006.16
34.48	808.41
-16.48	602.72
-70.5	437.32
-112.3	319.52
-135.8	233.46
-140.69	161.44
-130	97.96
-106.51	43.64
-74.77	-2.14
-42.72	-42.42
-18.92	-74.77
-8.24	-93.38
-7.63	-98.27
-10.99	-96.13
-13.12	-96.44
-11.9	-102.84
-8.85	-112.3
-6.1	-119.02
-4.88	-121.46
-5.49	-120.85
-7.32	-119.63
-9.46	-119.32
-10.99	-119.32
-10.99	-120.54
-10.38	-122.07
-10.38	-123.29
-11.29	-122.99
-12.51	-122.99
-13.73	-125.43
-14.04	-130
-13.43	-133.97
-12.82	-134.58
-11.9	-130.31
-11.29	-124.21
-10.07	-119.32
-8.24	-116.27
-5.8	-113.53
-3.36	-109.56
-1.83	-105.9
-1.22	-105.29
-1.22	-108.64
-1.22	-114.44
-0.61	-118.1
0.61	-116.27
2.44	-108.95
4.58	-98.27
6.41	-87.89
7.93	-81.48
9.16	-81.18
10.07	-84.23
10.68	-86.67
11.6	-85.45
13.43	-78.43
15.87	-68.05
18.31	-58.59
20.45	-52.49
21.97	-47
23.8	-38.45
25.94	-23.5
28.69	-1.83
31.74	21.97
34.48	42.72
36.32	58.59
36.62	71.41
35.71	82.7
34.48	94.3
32.96	104.98
32.65	113.53
33.57	118.71
34.48	120.54
34.18	119.32
32.04	114.44
27.77	105.9
22.58	94.6
17.7	82.09
13.73	69.89
10.68	60.42
8.24	54.32
5.49	49.74
2.44	44.86
-0.92	37.54
-4.27	27.77
-7.02	16.17
-8.85	3.66
-10.07	-8.24
-10.99	-18.01
-12.51	-24.11
-14.04	-25.63
-15.87	-23.5
-17.09	-19.23
-17.4	-14.65
-17.09	-10.99
-16.17	-9.46
-15.26	-10.38
-14.65	-14.04
-14.34	-19.53
-14.04	-25.33
-12.82	-30.82
-11.29	-34.18
-9.77	-34.48
-7.63	-31.43
-5.8	-25.94
-3.66	-18.92
-2.44	-12.51
-2.14	-6.41
-3.05	-0.31
-3.66	6.41
-2.14	13.43
2.44	20.14
9.46	24.11
14.34	16.17
10.99	-19.84
-6.71	-101.93
-41.5	-242
-89.11	-432.74
-137.02	-644.23
-169.37	-836.49
-175.17	-977.48
-158.08	-1058.35
-134.58	-1092.22
-123.6	-1096.80(R)
-134.58	-1077.88
-163.57	-1031.49
-198.36	-954.59
-231.63	-857.24
-260.31	-761.11
-286.56	-682.68
-310.36	-622.25
-332.95	-570.07
-354.92	-518.49
-373.54	-469.67
-380.25	-426.64
-362.85	-390.01
-316.77	-354.92
-252.99	-313.72
-195.31	-264.28
-162.66	-213.32
-156.56	-168.15
-162.96	-131.53
-163.27	-101.01
-149.54	-68.97
-124.21	-25.94
-93.99	29.3
-61.95	89.11
-29.6	140.69
2.44	175.48
31.74	194.4
54.32	207.52
69.58	224.3
78.74	249.02
83.92	277.4
86.36	302.43
86.98	320.13
87.28	331.12
87.59	338.75
89.42	345.15
92.77	351.87
97.05	358.89
101.32	368.65
105.29	384.83
109.56	409.55
113.83	442.81
119.02	480.96
123.9	518.49
128.78	551.15
133.97	578
140.38	601.2
147.71	625.61
155.64	655.21
163.27	688.78
170.9	721.74
178.22	749.51
186.16	769.96
194.4	784
202.64	794.98
210.57	804.44
216.98	812.99
222.17	819.09
225.83	820.01
227.66	812.07
228.58	790.71
228.27	756.84
227.05	715.94
224.61	676.88
220.64	645.45
215.15	620.12
208.44	594.79
201.42	562.74
194.4	523.68
186.77	481.26
177.61	440.98
166.63	407.41
154.42	379.64
141.6	353.39
128.78	324.4
116.27	289.61
103.76	250.55
91.25	211.49
79.35	177
68.36	149.23
58.29	126.65
49.13	107.12
40.28	89.11
31.74	69.27
23.5	46.69
15.56	21.67
8.24	-3.97
2.14	-26.25
-2.75	-42.42
-6.1	-51.27
-8.85	-55.24
-11.29	-56.76
-13.73	-59.2
-16.48	-64.7
-18.92	-74.46
-21.06	-86.98
-21.67	-100.4
-21.06	-111.39
-19.53	-118.1
-17.4	-119.93
-15.87	-119.02
-15.87	-119.02
-17.09	-122.07
-18.62	-125.73
-19.23	-125.12
-18.62	-118.41
-17.09	-108.95
-15.56	-103.76
-14.04	-107.12
-13.43	-116.88
-14.04	-126.65
-15.87	-132.45
-18.62	-133.97
-21.36	-133.67
-22.89	-133.36
-23.5	-134.89
-24.11	-139.16
-25.02	-146.79
-25.33	-155.94
-25.33	-163.27
-24.41	-164.18
-23.8	-156.56
-24.72	-143.74
-26.86	-133.67
-29.91	-132.14
-32.04	-140.38
-33.26	-153.5
-33.26	-163.27
-33.57	-164.18
-34.18	-155.94
-35.4	-144.96
-37.23	-139.16
-38.76	-141.6
-39.37	-151.06
-39.37	-161.74
-38.76	-167.54
-37.54	-167.24
-36.32	-163.88
-35.1	-161.74
-34.18	-161.74
-34.18	-162.05
-34.79	-159.91
-35.1	-154.42
-34.79	-148.62
-33.87	-146.18
-32.35	-150.76
-31.43	-161.44
-30.82	-173.34
-30.82	-179.75
-31.13	-175.78
-31.43	-162.35
-31.74	-145.57
-32.04	-134.58
-32.35	-132.75
-32.65	-137.33
-33.26	-141.6
-34.18	-141.3
-35.1	-137.33
-35.1	-133.36
-34.79	-132.14
-33.87	-134.89
-32.65	-140.38
-32.35	-147.09
-32.35	-151.98
-32.96	-151.98
-33.26	-146.48
-33.57	-137.63
-33.57	-130
-33.87	-126.65
-34.79	-127.87
-35.4	-130
-35.71	-130
-35.4	-126.34
-35.1	-119.63
-34.79	-112.61
-34.79	-106.81
-33.57	-104.06
-31.43	-104.68
-28.08	-108.64
-25.33	-113.53
-23.8	-118.1
-23.19	-121.46
-22.89	-123.29
-21.97	-124.82
-20.45	-126.65
-19.53	-129.39
-19.84	-132.14
-21.67	-134.58
-24.41	-135.8
-26.86	-135.8
-28.38	-135.19
-28.69	-132.75
-28.69	-128.78
-28.38	-124.21
-28.08	-120.85
-28.08	-121.77
-27.77	-127.56
-26.86	-136.11
-25.94	-142.52
-25.33	-143.43
-25.02	-138.24
-24.11	-130
-23.19	-123.9
-22.89	-122.99
-23.8	-126.04
-25.63	-130.31
-27.77	-132.75
-28.69	-132.14
-28.08	-128.48
-26.55	-123.29
-24.72	-116.88
-22.58	-111.39
-21.06	-107.73
-20.14	-107.42
-19.84	-109.56
-19.23	-112.92
-18.92	-114.44
-18.62	-113.53
-17.7	-110.47
-16.78	-107.12
-14.95	-104.06
-12.82	-101.32
-10.07	-97.96
-8.24	-93.99
-7.93	-91.25
-9.46	-90.94
-11.29	-93.38
-12.82	-96.74
-13.43	-97.05
-13.43	-93.08
-13.73	-86.36
-13.73	-81.48
-13.73	-83.01
-14.34	-89.42
-15.56	-95.83
-17.7	-97.96
-18.92	-94.6
-19.23	-88.5
-18.01	-83.01
-16.48	-78.13
-15.87	-72.02
-16.48	-64.7
-17.4	-59.51
-18.62	-61.04
-18.31	-69.58
-16.78	-79.96
-14.34	-84.84
-11.9	-80.26
-10.99	-69.27
-11.9	-58.59
-13.73	-54.63
-14.95	-57.07
-14.95	-62.26
-14.34	-63.48
-14.04	-57.37
-13.43	-43.95
-11.6	-28.69
-9.16	-18.92
-6.41	-18.62
-4.58	-26.86
-3.66	-37.54
-3.36	-43.33
-2.44	-41.81
-0.92	-35.4
0.31	-28.38
1.83	-23.8
3.05	-22.28
3.66	-23.19
2.44	-23.5
0	-22.58
-2.44	-20.45
-2.44	-19.23
0.31	-21.06
2.75	-26.25
3.05	-30.82
0	-32.04
-4.27	-29.3
-7.02	-25.33
-6.71	-24.11
-4.58	-25.94
-2.14	-28.99
-0.92	-30.21
-1.22	-29.6
-3.05	-27.77
-6.1	-25.63
-8.24	-23.5
-8.54	-21.67
-7.02	-20.45
-4.88	-21.97
-3.97	-26.86
-3.97	-34.18
-3.97	-39.98
-3.05	-39.06
-1.22	-30.52
-0.31	-18.92
-1.22	-11.6
-4.27	-13.43
-7.32	-21.97
-9.16	-29.3
-7.32	-29.3
-2.75	-22.58
3.36	-14.65
7.93	-9.77
9.46	-7.93
7.93	-5.8
4.58	-2.44
1.53	-0.92
0.31	-4.58
1.22	-11.29
3.97	-15.56
6.71	-15.26
8.24	-11.6
6.71	-8.54
2.44	-8.85
-2.44	-11.6
-5.19	-14.65
-4.27	-17.09
0	-20.14
5.19	-22.58
7.63	-22.58
6.41	-18.31
2.44	-12.21
-0.92	-8.24
-1.53	-8.85
0.31	-14.95
3.05	-24.41
4.27	-32.65
3.36	-36.01
0.92	-32.35
-2.14	-23.5
-4.27	-15.26
-5.19	-12.51
-4.88	-15.56
-3.66	-18.62
-1.83	-16.17
0.61	-8.85
2.75	-2.44
4.58	-1.22
5.8	-5.19
5.49	-10.68
4.27	-13.43
2.44	-11.29
1.22	-5.49
1.83	0.31
4.88	3.66
9.46	3.36
13.43	2.44
14.65	5.49
12.21	15.87
7.32	27.77
2.44	31.13
-0.31	18.92
-0.31	-7.93
1.83	-37.84
3.66	-54.63
4.27	-47.91
3.97	-19.53
3.36	16.17
2.75	39.06
3.36	34.79
3.97	7.63
4.88	-24.11
5.49	-41.5
4.88	-38.15
3.66	-21.06
2.75	-2.44
2.44	10.07
2.75	14.95
3.36	12.51
4.27	3.05
4.88	-10.68
4.58	-23.19
3.97	-29.3
3.05	-27.47
2.75	-20.75
3.66	-11.9
5.19	-2.75
6.71	4.58
7.32	6.1
7.32	0
7.32	-7.02
8.24	-5.49
9.46	8.85
10.99	27.77
11.6	38.76
12.21	32.04
13.12	11.9
14.95	-6.71
17.09	-12.82
17.7	-3.97
15.87	13.12
12.51	27.16
9.46	29.91
7.32	20.14
6.71	4.58
6.41	-7.02
5.8	-9.46
5.49	-3.97
6.41	3.36
7.63	8.54
8.85	10.99
9.77	10.99
10.38	7.63
11.29	0.92
11.29	-7.32
9.77	-12.51
7.32	-12.51
5.19	-8.24
3.97	-2.14
3.97	4.58
4.27	9.77
5.19	10.38
6.71	5.19
8.54	-3.66
9.77	-11.9
9.77	-14.65
8.24	-10.38
7.02	-2.44
7.02	4.27
7.93	6.1
8.54	4.58
8.85	5.19
9.16	11.6
9.77	22.58
10.07	30.52
9.16	26.86
7.63	12.51
6.1	-2.75
5.49	-6.41
6.71	2.44
8.24	17.09
8.54	27.47
7.63	28.08
5.19	19.53
2.75	6.1
1.22	-5.49
0.92	-9.77
0.61	-3.36
0.92	9.77
0.92	19.84
1.22	16.48
1.53	-1.53
0.92	-23.8
-0.92	-36.01
-3.66	-29.6
-6.1	-10.99
-7.02	6.71
-6.1	11.6
-3.36	3.36
-0.61	-8.24
0.92	-12.51
0.31	-5.8
-1.53	5.49
-3.36	11.9
-3.36	9.46
-1.83	1.22
0.31	-5.8
2.14	-6.1
3.36	0.92
3.97	10.38
4.88	17.4
5.8	18.92
6.1	17.09
5.19	15.87
3.05	18.01
0.61	22.89
-2.14	26.86
-3.97	26.55
-4.88	21.36
-5.19	13.73
-4.88	7.93
-4.58	6.71
-4.58	10.07
-4.88	14.95
-5.19	18.92
-4.88	19.84
-4.27	18.62
-3.36	15.87
-3.05	13.12
-3.36	10.07
-4.27	8.24
-4.88	7.32
-4.27	8.85
-3.36	11.29
-2.14	13.43
-1.53	14.65
-1.83	14.65
-2.44	15.26
-3.05	16.48
-3.05	18.01
-2.75	18.31
-2.75	17.09
-3.05	14.34
-3.05	11.29
-3.05	8.85
-2.44	6.1
-1.53	3.97
-0.31	3.66
0.61	6.41
1.53	12.82
2.75	20.75
3.66	27.16
3.66	30.21
2.44	29.91
0.92	28.38
0.92	32.04
3.05	50.05
6.1	93.69
6.1	175.78
0.31	311.28
-8.54	509.03
-10.38	756.84
3.36	1011.35
31.43	1203
59.81	1266.78(R)
69.89	1181.64
49.44	988.16
3.97	763.55
-49.44	574.65
-94.91	444.03
-122.99	357.06
-132.45	287.48
-125.73	219.12
-104.68	152.59
-73.55	92.77
-40.89	43.03
-16.48	3.66
-5.19	-23.19
-4.27	-39.37
-7.02	-48.83
-8.24	-55.54
-6.1	-60.42
-2.14	-63.48
1.53	-64.09
3.36	-64.39
4.27	-66.83
4.27	-70.8
5.19	-73.55
6.71	-73.24
8.85	-71.41
10.38	-69.58
11.29	-68.36
11.9	-68.05
12.51	-68.05
13.73	-68.97
14.34	-71.41
14.04	-75.07
13.12	-78.13
12.51	-79.96
12.21	-80.87
12.51	-81.79
13.43	-82.09
14.34	-81.79
15.56	-80.87
15.56	-80.26
14.65	-80.26
12.82	-78.74
11.29	-74.46
10.99	-67.44
12.21	-60.12
14.34	-54.93
16.17	-53.41
17.09	-53.71
17.09	-53.71
17.7	-53.41
19.53	-51.88
22.28	-49.44
25.63	-45.78
28.38	-40.89
30.52	-34.18
31.74	-26.55
33.26	-17.4
35.4	-5.49
37.23	8.54
38.76	24.11
39.37	38.76
39.98	51.27
41.2	61.65
43.33	69.89
46.08	77.21
48.52	84.84
49.44	94.91
49.44	109.25
49.13	128.78
49.13	151.06
49.44	172.12
49.74	187.68
49.74	196.53
49.13	198.97
48.22	196.53
46.69	191.35
44.86	183.72
42.11	174.26
39.06	162.66
35.71	148.32
32.04	131.23
28.69	114.14
25.63	101.93
22.89	97.96
19.84	102.54
16.48	109.86
13.43	111.69
10.68	104.37
8.24	89.72
6.1	72.94
3.97	60.42
1.53	54.93
-0.31	56.15
-0.92	60.12
-0.92	61.95
-0.31	56.76
0.61	44.86
1.83	32.04
3.05	25.94
4.58	29.3
6.1	38.76
7.32	47.61
8.54	50.05
9.77	45.47
11.29	38.15
12.21	31.74
12.21	28.69
10.99	28.99
10.07	32.35
9.46	38.15
10.07	46.08
11.6	54.63
14.95	60.42
19.84	61.65
24.72	57.98
26.55	45.47
19.53	10.38
-1.22	-67.75
-37.84	-206.3
-85.75	-401.61
-132.45	-622.86
-162.66	-823.67
-167.24	-967.41
-151.37	-1043.7
-130	-1066.89(R)
-120.54	-1057.13
-131.23	-1025.39
-158.08	-971.68
-191.65	-896.3
-224.3	-806.88
-253.91	-721.13
-280.15	-649.41
-303.96	-590.82
-326.54	-538.02
-349.12	-486.15
-368.04	-435.49
-372.31	-389.1
-350.04	-348.82
-299.68	-311.89
-236.21	-272.83
-184.33	-231.02
-159.61	-190.43
-158.39	-154.11
-163.57	-123.6
-159.61	-94.91
-141.6	-61.04
-114.44	-14.65
-84.53	42.72
-54.02	102.23
-22.28	153.2
9.77	189.21
39.06	212.4
61.95	229.8
76.6	246.28
83.62	262.45
85.75	278.02
86.36	293.58
87.59	310.36
90.94	328.67
95.52	347.6
100.1	366.21
103.45	385.44
105.9	407.1
108.34	429.08
112.3	449.22
117.8	464.78
123.9	476.99
130	488.59
135.5	505.37
140.08	529.79
145.57	562.13
152.59	599.67
161.13	637.51
170.9	671.08
180.36	698.85
189.21	722.66
196.84	744.63
204.47	768.43
212.1	793.76
220.64	818.18
229.19	838.93
236.51	853.27
242	858.46
245.36	853.27
247.8	838.93
249.33	816.04
249.94	787.66
249.02	756.84
245.97	725.1
241.09	691.53
234.68	654.91
227.66	616.15
219.73	577.39
210.27	540.47
199.28	504.15
187.38	465.39
175.48	422.67
164.18	379.64
153.2	342.41
141.91	314.94
129.09	295.41
115.97	276.79
103.15	250.85
91.25	213.62
80.57	168.46
70.19	121.46
60.12	79.96
50.96	49.44
42.42	31.43
34.79	24.41
28.08	21.97
21.97	16.48
16.48	3.36
11.29	-15.87
6.1	-34.48
0.92	-46.08
-3.36	-49.74
-7.02	-51.57
-81.79	-68.05
-82.09	-75.07
-82.4	-77.21
-82.7	-74.46
-82.09	-67.75
-81.48	-58.9
-80.87	-52.49
-81.18	-51.88
-82.09	-55.24
-83.01	-57.07
-83.31	-52.8
-83.01	-44.86
-82.09	-40.59
-81.18	-45.78
-80.87	-58.9
-81.48	-72.02
-82.09	-77.82
-82.4	-75.38
-82.09	-69.58
-81.48	-66.53
-80.87	-65.61
-81.18	-64.09
-81.79	-59.2
-82.7	-51.88
-83.01	-45.47
-82.7	-43.33
-81.79	-44.56
-81.18	-46.39
-80.87	-47.61
-81.48	-47.91
-82.4	-47.3
-82.7	-46.39
-82.4	-45.47
-81.48	-44.25
-80.87	-44.25
-80.87	-46.08
-81.48	-49.44
-82.09	-52.8
-82.4	-54.32
-82.09	-53.1
-81.48	-48.83
-81.18	-43.64
-81.18	-39.98
-81.79	-38.76
-82.4	-39.37
-83.31	-38.76
-83.62	-36.01
-83.92	-32.96
-83.92	-31.43
-83.92	-29.91
-84.23	-19.23
-84.53	15.26
-84.53	88.2
-84.53	209.96
-84.23	387.27
-83.92	617.07
-83.92	874.94
-84.23	1112.67
-84.84	1266.17
-84.84	1285.71(R)
-84.53	1167.6
-83.92	956.42
-83.31	721.74
-83.01	516.97
-83.62	361.63
-84.23	251.46
-84.23	174.26
-83.92	119.32
-83.31	77.21
-83.01	38.45
-83.01	-2.14
-83.62	-37.84
-84.53	-57.37
-84.53	-58.29
-84.23	-51.57
-83.31	-52.8
-82.4	-67.75
-82.4	-89.11
-82.7	-104.06
-83.62	-105.29
-83.92	-97.05
-83.92	-88.81
-83.62	-88.2
-83.31	-95.83
-83.31	-107.12
-83.62	-115.66
-84.23	-116.27
-84.53	-109.25
-84.23	-97.66
-83.92	-87.89
-83.31	-83.92
-83.31	-86.67
-83.62	-92.47
-83.92	-97.05
-84.23	-98.27
-83.62	-96.13
-83.01	-92.77
-82.4	-90.33
-82.4	-88.2
-83.01	-85.45
-83.62	-80.57
-83.92	-73.85
-83.92	-68.05
-83.31	-65.61
-82.7	-67.44
-82.7	-71.11
-83.01	-73.24
-83.62	-70.5
-83.62	-62.87
-83.31	-52.8
-82.7	-43.03
-82.4	-33.57
-82.4	-22.58
-83.31	-8.54
-83.92	6.71
-83.92	18.62
-83.01	22.89
-82.09	21.06
-81.48	18.92
-81.79	24.72
-82.4	42.11
-83.01	69.58
-83.62	99.79
-83.31	125.43
-82.7	142.52
-82.09	153.2
-81.79	162.35
-82.4	173.95
-83.01	188.29
-83.62	201.42
-83.62	208.74
-83.01	207.82
-82.09	199.58
-81.79	186.16
-81.79	170.59
-82.7	153.2
-83.01	133.67
-83.01	112.3
-82.09	89.11
-81.48	66.83
-81.79	47.61
-82.4	33.26
-83.01	22.28
-83.31	12.51
-82.7	3.66
-81.79	-2.75
-81.18	-4.27
-81.48	-2.14
-82.4	-0.61
-83.01	-4.58
-83.62	-14.65
-83.31	-26.86
-82.4	-35.4
-81.79	-36.93
-81.79	-33.87
-82.09	-29.91
-82.7	-27.16
-83.01	-24.41
-82.4	-20.45
-81.79	-16.17
-81.18	-14.04
-81.18	-15.56
-81.79	-18.01
-82.4	-16.17
-82.7	-9.16
-82.4	-0.31
-81.18	3.66
-79.65	0
-79.04	-8.24
-79.04	-14.04
-79.65	-15.87
-80.26	-16.78
-80.26	-20.75
-79.65	-27.77
-79.04	-32.35
-78.74	-28.08
-79.04	-16.17
-79.65	-4.27
-79.96	0
-79.65	-7.93
-79.35	-23.5
-79.04	-39.98
-79.35	-49.74
-79.96	-50.66
-80.57	-45.78
-80.57	-41.81
-79.96	-44.56
-79.04	-53.1
-78.43	-59.81
-78.43	-57.98
-79.04	-47.61
-80.26	-37.23
-80.87	-37.54
-80.57	-49.13
-79.65	-63.48
-78.74	-70.5
-78.74	-67.14
-79.04	-59.51
-79.96	-57.37
-80.57	-62.26
-80.26	-69.27
-79.65	-69.89
-79.04	-61.95
-79.04	-49.74
-79.65	-40.89
-80.26	-39.98
-80.57	-46.08
-80.26	-55.24
-79.35	-63.78
-78.74	-70.8
-78.74	-75.07
-79.35	-75.07
-80.26	-68.36
-80.87	-55.85
-80.57	-42.11
-79.96	-34.48
-79.35	-36.93
-79.04	-47.91
-79.35	-60.12
-80.26	-65.31
-80.57	-62.26
-80.57	-56.15
-79.65	-53.1
-79.04	-55.24
-78.74	-58.9
-79.04	-60.12
-79.96	-59.2
-80.57	-59.2
-80.26	-61.95
-79.65	-65
-79.04	-66.22
-78.74	-65.92
-79.35	-67.14
-79.96	-71.11
-80.57	-74.16
-80.57	-72.94
-79.96	-66.22
-79.35	-58.59
-79.04	-54.93
-79.65	-57.68
-80.26	-62.87
-80.87	-65.31
-80.87	-63.17
-79.96	-58.9
-79.04	-57.37
-78.74	-60.73
-79.35	-66.83
-79.96	-72.02
-80.87	-72.94
-80.57	-69.89
-79.65	-65
-78.74	-60.73
-78.43	-58.29
-78.74	-57.37
-79.65	-57.07
-80.26	-56.15
-79.96	-54.63
-79.65	-52.49
-79.04	-49.13
-79.04	-43.95
-79.65	-38.76
-80.26	-36.62
-80.57	-39.67
-80.26	-47.91
-79.35	-56.76
-78.43	-61.04
-78.13	-57.07
-78.74	-47.91
-79.65	-37.84
-80.26	-29.91
-80.26	-26.86
-79.65	-30.52
-78.74	-41.5
-78.43	-55.85
-79.04	-65.61
-79.96	-63.78
-80.26	-51.27
-79.96	-36.62
-78.74	-30.52
-77.82	-35.71
-77.82	-46.69
-78.43	-55.24
-79.65	-55.85
-80.26	-51.27
-79.96	-46.39
-79.35	-44.56
-79.35	-43.64
-79.65	-41.2
-80.57	-34.79
-81.79	-26.55
-82.4	-22.58
-82.09	-25.94
-81.48	-34.48
-80.57	-39.37
-80.26	-35.1
-80.57	-24.72
-81.48	-17.09
-81.79	-18.62
-81.79	-28.08
-81.18	-35.71
-80.57	-35.1
-80.26	-27.47
-80.57	-21.36
-81.18	-21.06
-81.79	-24.41
-82.09	-26.86
-81.48	-24.72
-80.57	-19.84
-80.26	-16.17
-80.87	-17.09
-81.48	-21.97
-82.09	-28.08
-82.09	-32.65
-81.48	-32.96
-80.57	-28.69
-80.26	-22.28
-80.26	-17.09
-81.18	-15.56
-81.79	-19.53
-82.09	-27.77
-81.48	-38.15
-80.57	-47.61
-79.96	-49.74
-80.26	-40.59
-81.18	-23.5
-81.79	-9.77
-82.09	-11.29
-81.48	-28.38
-80.87	-46.69
-80.26	-48.22
-80.57	-28.99
-81.48	-4.27
-82.7	3.66
-83.01	-13.73
-82.4	-41.5
-81.18	-56.76
-80.57	-47.3
-80.57	-21.06
-81.48	6.71
-82.4	30.21
-82.7	64.39
-82.4	136.41
-82.09	270.39
-81.48	474.55
-81.79	732.42
-82.4	998.54
-82.7	1207.89
-83.01	1296.69(R)
-82.4	1238.1
-81.79	1058.96
-81.48	827.03
-81.48	610.66
-81.79	444.64
-82.4	324.71
-82.4	234.68
-82.09	163.57
-81.48	108.95
-81.18	68.05
-80.87	31.43
-81.18	-7.02
-81.48	-43.33
-81.48	-65
-81.18	-68.66
-80.57	-63.48
-80.26	-62.87
-80.26	-72.02
-80.57	-83.92
-80.87	-87.89
-80.87	-80.57
-80.87	-67.75
-80.57	-58.9
-80.57	-57.98
-80.57	-62.87
-80.87	-68.66
-81.18	-71.72
-81.48	-71.72
-81.48	-69.58
-81.18	-67.75
-80.57	-66.53
-80.26	-65
-80.57	-62.56
-80.87	-59.2
-81.18	-55.54
-81.18	-51.88
-80.87	-48.52
-80.57	-45.78
-80.26	-43.33
-80.57	-42.11
-80.87	-42.11
-81.18	-43.64
-81.18	-45.17
-80.57	-45.47
-80.26	-43.33
-80.26	-38.76
-80.57	-32.65
-81.18	-26.55
-81.48	-21.36
-81.18	-16.48
-80.26	-11.29
-78.74	-4.58
-78.13	4.27
-78.13	14.95
-78.74	26.25
-79.35	37.54
-79.65	47.91
-79.04	56.15
-78.43	63.17
-78.13	70.8
-78.43	81.18
-79.04	95.52
-79.35	112.92
-79.35	130.92
-79.04	147.4
-78.74	161.13
-78.74	173.03
-78.74	184.33
-79.04	194.7
-79.35	202.64
-79.65	206.91
-79.35	207.21
-79.35	204.16
-79.04	198.67
-79.04	190.73
-79.04	180.05
-79.04	165.71
-79.04	148.01
-78.74	128.78
-78.43	110.17
-78.13	93.69
-78.43	79.04
-79.04	64.7
-79.35	49.44
-79.35	32.65
-79.04	15.87
-78.43	0.92
-77.82	-10.68
-78.13	-18.31
-78.74	-23.19
-79.35	-27.16
-79.35	-31.13
-79.04	-34.48
-78.13	-36.01
-77.82	-35.71
-77.82	-34.18
-78.43	-33.26
-79.04	-33.87
-79.35	-35.71
-79.04	-38.76
-78.74	-41.81
-78.13	-44.86
-78.13	-46.69
-78.13	-47
-78.43	-44.25
-78.74	-38.76
-78.74	-32.96
-78.43	-28.69
-77.82	-27.16
-77.82	-27.77
-78.13	-29.3
-78.74	-29.6
-79.04	-28.99
-78.74	-27.77
-78.13	-26.55
-77.51	-24.41
-77.21	-21.67
-77.51	-18.92
-78.13	-17.7
-78.43	-19.23
-78.43	-23.19
-78.13	-28.69
-77.82	-33.57
-77.51	-35.71
-77.82	-34.18
-78.13	-29.91
-78.43	-25.02
-78.43	-22.58
-78.43	-25.02
-78.13	-32.04
-77.82	-41.5
-77.82	-50.05
-77.82	-54.63
-78.13	-54.93
-78.43	-51.57
-77.82	-46.39
-77.51	-40.89
-77.21	-36.93
-77.51	-34.79
-77.82	-35.1
-78.43	-38.15
-78.74	-43.64
-78.43	-50.96
-78.13	-58.59
-77.51	-64.7
-77.51	-68.05
-77.51	-68.66
-77.82	-67.44
-77.82	-65.31
-77.51	-63.78
-77.51	-63.78
-77.21	-65
-77.21	-67.14
-77.51	-68.97
-77.51	-70.19
-77.82	-70.5
-77.82	-71.11
-77.51	-71.11
-77.82	-70.19
-77.82	-68.05
-78.43	-65.92
-78.43	-65.31
-78.43	-67.44
-78.43	-71.41
-78.13	-75.68
-77.82	-79.35
-78.13	-81.79
-78.43	-82.4
-78.74	-81.18
-79.04	-76.9
-79.04	-70.8
-78.74	-66.53
-78.13	-68.05
-77.82	-74.77
-77.82	-83.62
-77.82	-88.2
-78.13	-86.06
-78.74	-79.35
-78.74	-73.85
-79.04	-74.46
-79.04	-79.65
-79.35	-84.84
-79.65	-85.75
-79.96	-82.4
-80.26	-78.43
-79.96	-76.9
-79.65	-77.21
-79.65	-76.29
-79.65	-73.55
-79.96	-71.11
-80.26	-72.63
-79.96	-77.51
-79.65	-82.09
-79.35	-83.01
-79.35	-80.57
-79.96	-78.43
-80.26	-79.35
-80.57	-82.09
-80.26	-83.31
-79.65	-81.18
-79.35	-77.21
-79.04	-73.85
-79.35	-72.02
-79.96	-70.19
-80.57	-68.66
-80.57	-67.44
-80.26	-67.44
-79.65	-67.75
-79.35	-67.14
-79.04	-65.61
-79.35	-64.7
-79.65	-65.92
-79.65	-69.27
-79.65	-72.94
-79.65	-76.29
-79.65	-78.74
-79.65	-81.18
-79.96	-82.4
-79.96	-81.48
-79.65	-79.04
-79.04	-76.6
-78.74	-76.29
-78.74	-77.21
-79.04	-76.6
-79.96	-72.02
-80.26	-64.39
-80.26	-56.76
-79.65	-52.8
-79.04	-53.1
-78.74	-56.46
-79.04	-61.04
-79.35	-65.31
-79.96	-68.36
-80.26	-68.97
-80.26	-67.44
-79.65	-64.39
-79.35	-62.26
-79.35	-62.87
-79.65	-66.53
-79.96	-70.5
-79.65	-70.19
-79.04	-64.09
-78.74	-54.02
-78.13	-45.47
-78.43	-43.03
-78.74	-48.22
-79.04	-56.46
-79.35	-61.65
-79.04	-59.81
-78.74	-51.57
-78.43	-42.42
-78.43	-36.93
-79.04	-37.23
-79.65	-41.2
-79.65	-47.3
-79.65	-54.02
-79.04	-61.65
-79.04	-68.97
-79.04	-72.94
-79.35	-70.8
-79.65	-63.17
-79.35	-54.63
-79.04	-50.35
-78.43	-52.19
-78.43	-57.68
-78.43	-61.34
-78.74	-59.81
-79.04	-52.19
-79.04	-43.33
-79.04	-37.54
-79.04	-37.54
-79.04	-42.42
-79.04	-49.44
-79.04	-54.93
-79.04	-55.54
-79.35	-50.35
-79.35	-40.59
-79.35	-29.3
-79.04	-21.97
-79.04	-21.97
-79.35	-30.21
-79.35	-43.03
-79.04	-53.71
-78.74	-56.76
-78.43	-50.35
-78.43	-38.15
-78.43	-26.55
-78.74	-22.28
-79.04	-28.08
-79.04	-40.28
-78.74	-51.27
-78.43	-55.24
-78.13	-51.27
-78.43	-42.72
-79.04	-35.71
-79.65	-32.96
-79.65	-35.71
-79.65	-42.42
-79.04	-50.35
-78.74	-56.76
-78.74	-59.2
-79.04	-55.85
-79.65	-47.91
-79.65	-38.45
-79.65	-31.13
-79.04	-28.69
-78.43	-31.43
-78.43	-36.93
-78.74	-42.42
-79.04	-45.78
-79.35	-45.78
-79.04	-43.03
-78.74	-39.06
-78.43	-36.01
-78.43	-35.71
-79.04	-38.76
-79.65	-43.64
-79.65	-48.52
-79.65	-50.96
-79.04	-50.66
-78.43	-49.13
-78.43	-47.91
-78.74	-47.3
-79.35	-45.47
-79.35	-43.03
-79.04	-41.5
-78.43	-41.2
-78.13	-41.2
-78.13	-39.98
-78.43	-36.01
-79.04	-30.82
-79.35	-26.55
-79.35	-25.02
-78.74	-26.55
-78.13	-31.13
-77.82	-39.67
-78.13	-50.35
-79.04	-59.81
-79.65	-64.09
-79.96	-60.73
-79.35	-52.49
-78.43	-46.08
-77.82	-46.39
-77.82	-52.8
-78.43	-58.59
-79.04	-57.98
-79.04	-49.74
-78.43	-39.37
-77.82	-32.96
-77.51	-32.04
-78.13	-32.96
-78.74	-32.65
-79.04	-31.13
-79.04	-30.82
-78.43	-32.96
-78.13	-36.62
-78.13	-39.06
-78.74	-38.76
-79.65	-36.32
-79.96	-33.57
-79.65	-31.74
-79.04	-31.43
-78.43	-31.74
-78.13	-30.82
-78.43	-27.77
-79.04	-23.19
-79.35	-19.84
-79.04	-20.14
-78.74	-24.72
-78.43	-32.65
-78.74	-42.72
-79.04	-52.8
-79.65	-60.42
-79.65	-61.95
-79.35	-56.76
-78.74	-47.3
-78.43	-39.67
-78.13	-36.93
-78.13	-38.45
-78.74	-40.89
-79.04	-43.03
-79.04	-45.17
-78.74	-47.61
-78.43	-50.05
-78.43	-49.44
-79.04	-45.17
-79.65	-39.67
-79.65	-36.32
-79.35	-35.71
-78.74	-35.4
-78.13	-34.79
-78.13	-33.87
-78.43	-34.79
-78.74	-37.84
-79.04	-40.89
-79.04	-41.2
-78.43	-38.15
-78.13	-33.87
-78.13	-31.74
-78.13	-32.35
-78.74	-33.57
-78.74	-33.26
-78.74	-30.21
-78.13	-26.55
-77.82	-24.72
-77.82	-26.25
-78.43	-29.91
-79.35	-33.87
-79.65	-35.1
-79.35	-32.65
-78.74	-27.47
-77.82	-21.36
-77.82	-16.78
-78.43	-16.17
-79.04	-20.45
-79.65	-28.38
-79.65	-34.48
-79.04	-30.82
-79.04	-7.63
-79.35	45.78
-80.26	139.16
-81.18	285.34
-81.48	491.94
-81.48	749.82
-80.87	1020.51
-80.26	1237.18
-80.26	1332.70(R)
-80.87	1274.72
-81.48	1088.87
-81.79	842.59
-81.79	607.3
-81.18	422.97
-80.57	294.49
-80.26	206.3
-80.57	140.08
-81.18	84.23
-81.79	30.82
-81.79	-22.28
-81.18	-68.36
-80.26	-96.13
-79.96	-99.49
-80.26	-86.67
-81.18	-73.85
-81.48	-72.94
-81.48	-83.92
-80.87	-98.27
-79.96	-107.12
-79.65	-109.86
-80.26	-110.47
-80.87	-111.08
-81.18	-112
-80.87	-110.78
-80.57	-107.42
-79.96	-103.45
-79.96	-99.79
-80.26	-97.35
-80.87	-94.3
-81.48	-89.72
-81.48	-83.01
-80.87	-75.99
-80.26	-69.89
-80.26	-65.92
-80.87	-63.78
-81.79	-62.26
-82.09	-61.95
-81.79	-64.7
-80.87	-72.33
-79.96	-83.92
-79.96	-96.13
-80.26	-104.98
-80.87	-108.64
-81.18	-106.2
-80.87	-99.18
-80.26	-90.33
-79.65	-81.48
-79.35	-74.46
-79.35	-69.58
-79.96	-66.53
-80.26	-63.17
-80.57	-57.68
-80.26	-48.83
-79.96	-37.54
-79.96	-25.63
-80.26	-14.34
-80.87	-3.66
-81.18	8.54
-80.87	22.89
-80.26	38.45
-79.65	53.41
-79.35	66.83
-79.65	78.74
-80.26	92.16
-80.87	107.12
-80.87	122.68
-80.57	136.41
-80.26	147.09
-79.96	155.94
-80.26	166.32
-80.87	179.14
-81.18	191.35
-81.18	198.36
-80.87	195.31
-79.96	181.88
-79.35	161.44
-79.65	141.3
-80.26	124.82
-80.57	112.61
-80.57	100.1
-80.26	83.92
-79.35	63.17
-79.35	40.59
-79.65	21.67
-80.57	10.07
-81.18	7.63
-81.48	11.29
-81.18	17.4
-80.87	19.84
-80.57	12.21
-81.18	-6.1
-81.79	-30.21
-82.4	-49.74
-82.4	-54.63
-81.79	-42.72
-80.87	-22.28
-80.26	-4.88
-80.26	-0.31
-81.18	-7.63
-81.79	-19.84
-81.79	-27.16
-81.18	-25.02
-80.26	-14.04
-80.26	-1.83
-80.57	2.75
-81.48	-3.05
-81.79	-14.65
-81.48	-22.28
-80.87	-18.31
-79.96	-5.19
-79.35	7.32
-79.35	10.38
-79.35	3.36
-79.35	-6.71
-79.04	-10.99
-78.74	-6.71
-78.13	1.53
-78.13	7.02
-78.43	6.1
-78.74	0.92
-79.04	-4.27
-79.04	-6.41
-78.74	-6.1
-78.43	-5.19
-78.43	-5.49
-78.74	-8.24
-79.35	-13.43
-79.65	-20.14
-79.65	-26.86
-79.04	-32.04
-78.43	-34.48
-78.43	-34.79
-78.74	-33.87
-79.35	-32.96
-79.65	-32.04
-79.65	-31.13
-79.04	-31.43
-78.43	-32.96
-78.43	-35.4
-78.43	-37.54
-78.74	-39.06
-79.04	-40.59
-78.74	-45.17
-78.43	-52.49
-78.13	-60.12
-78.13	-63.48
-78.43	-59.51
-79.35	-50.66
-79.65	-43.03
-79.35	-43.03
-79.04	-51.27
-78.43	-61.95
-78.13	-67.44
-78.74	-62.87
-79.35	-51.57
-79.65	-40.28
-79.04	-35.71
-78.43	-39.06
-77.51	-46.69
-77.51	-53.1
-78.13	-55.54
-78.74	-56.15
-79.04	-57.98
-79.04	-61.95
-78.43	-66.53
-77.82	-67.14
-78.13	-61.65
-79.04	-52.49
-79.65	-43.95
-79.96	-39.67
-79.35	-40.59
-78.43	-44.86
-77.82	-51.27
-77.51	-57.98
-78.13	-61.34
-78.74	-58.9
-79.35	-51.57
-79.04	-44.86
-78.74	-45.17
-78.13	-53.71
-78.13	-65.31
-78.13	-71.41
-78.74	-67.44
-79.04	-56.46
-78.74	-46.08
-78.43	-42.42
-78.13	-45.78
-78.13	-51.57
-78.43	-52.8
-79.04	-46.39
-79.35	-35.1
-79.35	-26.86
-78.74	-27.77
-78.13	-38.15
-78.13	-50.05
-78.74	-54.32
-79.65	-48.22
-79.96	-38.45
-79.35	-34.18
-78.74	-39.06
-78.13	-48.52
-77.82	-53.41
-78.43	-49.44
-79.04	-39.67
-79.35	-30.82
-79.04	-29.3
-78.43	-35.71
-77.82	-44.86
-77.82	-48.52
-78.13	-42.11
-78.74	-27.77
-79.35	-14.65
-79.04	-14.04
-78.43	-28.99
-78.13	-51.27
-78.13	-66.53
-78.74	-64.39
-79.35	-47.3
-79.35	-28.99
-79.04	-21.67
-78.43	-27.77
-78.13	-40.28
-78.43	-49.13
-79.04	-49.44
-79.96	-43.33
-79.96	-36.62
-79.35	-34.48
-78.74	-37.23
-78.43	-41.2
-79.04	-41.81
-80.26	-38.15
-81.48	-33.57
-82.4	-32.96
-82.09	-37.54
-81.18	-43.33
-80.57	-43.33
-80.26	-36.32
-80.87	-27.47
-81.48	-24.11
-82.09	-28.38
-82.09	-34.48
-81.48	-35.71
-80.87	-28.69
-80.57	-18.62
-80.87	-13.73
-81.18	-18.92
-81.79	-31.13
-81.48	-42.11
-80.87	-44.25
-80.57	-36.32
-80.57	-24.72
-80.87	-18.01
-81.48	-18.92
-81.48	-24.11
-80.87	-27.47
-80.26	-25.33
-79.96	-19.84
-80.26	-16.17
-80.87	-17.09
-81.18	-21.36
-81.18	-23.8
-80.57	-20.75
-79.65	-12.21
-79.35	-3.66
-79.35	-2.44
-79.96	-10.68
-80.57	-24.11
-80.87	-34.18
-80.57	-35.1
-80.26	-29.3
-79.65	-22.28
-79.96	-18.31
-80.26	-17.09
-80.87	-15.56
-80.87	-13.73
-80.26	-13.73
-79.65	-18.01
-79.35	-24.11
-79.65	-27.16
-80.26	-24.72
-80.57	-19.23
-80.57	-14.95
-80.26	-14.34
-79.65	-15.26
-79.65	-15.26
-79.96	-13.12
-80.57	-10.38
-80.57	-8.24
-80.57	-5.49
-80.26	-2.44
-80.26	-1.83
-80.26	-6.1
-80.26	-12.82
-80.57	-17.7
-80.87	-17.4
-80.87	-13.12
-80.57	-10.99
-79.96	-13.12
-79.65	-16.48
-79.65	-15.87
-79.96	-10.07
-80.26	-1.53
-80.26	3.66
-79.65	2.75
-79.35	-3.66
-79.04	-12.21
-79.35	-19.23
-79.65	-21.67
-80.26	-19.23
-80.26	-14.04
-79.96	-7.32
-79.35	-1.22
-78.74	3.36
-78.74	4.27
-79.04	0.92
-79.35	-4.27
-79.35	-8.54
-79.35	-10.07
-79.04	-8.54
-79.04	-6.71
-79.35	-5.8
-79.96	-5.49
-80.57	-4.88
-80.57	-4.88
-79.65	-5.49
-78.74	-6.1
-78.43	-6.41
-78.74	-7.02
-79.65	-9.46
-80.57	-13.12
-80.57	-16.78
-79.96	-18.62
-79.04	-18.31
-78.74	-17.4
-79.04	-16.48
-79.65	-14.95
-80.57	-11.29
-80.57	-7.32
-80.26	-5.19
-79.35	-5.8
-78.74	-7.02
-78.74	-5.19
-79.35	-0.31
-79.96	4.58
-80.26	3.66
-79.96	-4.27
-79.04	-14.95
-78.43	-21.06
-78.13	-18.62
-78.43	-8.85
-78.43	2.14
-78.13	8.85
-77.21	9.16
-76.29	4.27
-76.29	-2.14
-76.6	-6.1
-77.21	-5.8
-77.51	-2.75
-77.21	0.61
-76.6	0.61
-75.99	-3.05
-75.68	-7.93
-75.99	-9.77
-76.29	-8.24
-76.9	-4.58
-76.9	-1.83
-76.6	-0.31
-75.99	2.14
-75.99	6.41
-75.99	11.6
-76.6	14.95
-76.9	14.34
-76.9	11.29
-76.6	9.16
-75.99	10.07
-75.68	12.82
-75.99	15.56
-76.6	16.17
-77.21	14.65
-77.21	12.51
-76.9	10.38
-76.29	9.16
-75.99	8.54
-76.29	9.46
-76.9	11.9
-77.51	14.95
-77.51	17.09
-76.9	16.78
-76.29	14.34
-75.68	10.38
-75.99	7.32
-76.6	6.1
-77.21	6.41
-77.21	7.02
-76.6	6.71
-75.99	6.1
-75.38	5.19
-75.68	4.58
-75.99	4.88
-76.6	4.58
-76.9	3.66
-76.6	1.83
-75.99	0
-75.68	-1.53
-75.68	-1.53
-76.29	-0.31
-76.9	1.83
-76.9	3.97
-76.29	4.88
-75.68	4.88
-75.38	3.66
-75.68	3.36
-76.29	10.38
-76.6	36.32
-76.29	94.3
-75.99	198.67
-75.38	360.72
-75.38	582.58
-75.68	845.34
-76.29	1102.91
-76.9	1289.06
-76.6	1345.83(R)
-75.99	1256.71
-75.38	1060.18
-75.07	827.33
-75.38	621.03
-75.68	465.7
-75.99	354.61
-75.99	271.91
-75.68	205.99
-75.07	151.98
-74.46	103.76
-74.77	54.93
-75.07	6.71
-75.68	-30.21
-75.99	-47.3
-75.68	-47
-75.07	-42.42
-74.77	-45.17
-74.77	-56.46
-75.38	-67.75
-75.99	-71.72
-75.99	-68.36
-75.68	-62.87
-75.07	-60.73
-74.77	-63.78
-75.99	-74.46
-76.29	-73.24
-75.99	-71.72
-75.38	-71.41
-75.07	-72.02
-75.07	-72.94
-75.68	-72.94
-75.99	-72.33
-75.68	-71.11
-75.07	-69.27
-74.46	-66.83
-74.16	-63.17
-74.46	-58.9
-75.38	-53.71
-75.99	-48.52
-75.99	-43.64
-75.68	-39.67
-75.07	-37.23
-74.77	-36.93
-74.77	-37.84
-75.38	-38.45
-75.99	-36.93
-76.6	-32.04
-76.9	-25.02
-77.21	-17.4
-77.51	-10.99
-77.51	-6.41
-77.82	-2.75
-78.13	2.44
-78.13	10.38
-77.51	21.36
-77.21	34.79
-76.9	49.13
-77.21	61.95
-77.82	70.5
-78.43	74.46
-78.43	75.99
-77.51	79.35
-76.9	87.28
-76.6	100.4
-76.9	116.88
-77.82	133.67
-78.43	149.54
-78.43	163.27
-77.51	174.26
-76.9	181.27
-76.6	183.41
-76.9	181.58
-77.51	176.09
-78.13	166.63
-78.13	152.28
-77.82	133.36
-77.21	111.39
-76.9	90.03
-77.21	71.41
-77.82	55.54
-78.13	40.28
-78.13	24.72
-77.21	10.07
-76.29	-0.31
-75.99	-5.49
-76.29	-5.19
-77.21	-2.75
-78.13	-1.22
-78.13	-2.44
-77.82	-6.1
-76.9	-9.77
-76.29	-11.29
-76.29	-10.38
-76.6	-9.16
-77.21	-10.68
-77.51	-15.26
-76.9	-20.14
-76.6	-21.36
-76.29	-18.01
-76.29	-13.43
-77.21	-11.6
-77.82	-14.95
-78.13	-21.97
-77.82	-28.99
-76.9	-32.96
-76.29	-33.87
-75.99	-32.04
-76.6	-27.16
-77.21	-18.92
-77.21	-10.07
-76.6	-4.88
-75.68	-6.71
-75.38	-14.95
-75.68	-24.72
-76.6	-30.82
-77.21	-31.43
-77.21	-28.69
-76.6	-25.33
-75.99	-23.19
-75.68	-22.28
-75.99	-21.97
-76.6	-22.58
-76.9	-25.33
-76.9	-31.43
-76.29	-38.76
-75.68	-43.03
-75.68	-41.81
-75.99	-35.4
-76.6	-29.3
-77.21	-28.99
-77.51	-35.1
-76.9	-42.42
-76.29	-45.17
-75.68	-42.11
-75.99	-37.23
-76.6	-36.01
-77.21	-41.2
-77.51	-49.44
-76.9	-55.24
-76.29	-54.93
-75.68	-49.74
-75.68	-45.47
-76.29	-47.3
-76.9	-55.24
-76.9	-63.78
-76.6	-66.53
-75.99	-60.42
-75.38	-48.22
-75.38	-37.54
-75.38	-34.79
-75.99	-40.59
-75.99	-51.27
-75.99	-60.73
-75.38	-64.09
-75.38	-61.65
-75.38	-58.29
-75.99	-59.2
-76.29	-65.61
-76.6	-75.07
-76.29	-82.7
-75.68	-86.98
-75.07	-88.81
-75.07	-91.25
-75.38	-94.3
-76.29	-96.13
-76.6	-93.99
-76.6	-89.72
-75.99	-86.36
-75.38	-87.59
-75.38	-91.86
-75.68	-95.21
-76.6	-92.16
-76.6	-83.31
-76.29	-73.55
-74.77	-69.27
-73.55	-74.77
-72.94	-87.89
-73.24	-101.01
-73.85	-106.2
-74.46	-99.79
-74.46	-85.75
-73.85	-72.33
-73.24	-65.61
-73.24	-66.22
-73.85	-69.89
-74.46	-73.55
-74.46	-76.6
-73.85	-80.87
-72.94	-86.67
-72.33	-91.25
-72.33	-92.47
-72.94	-89.72
-73.55	-84.53
-73.85	-79.96
-73.55	-75.99
-73.24	-72.02
-72.63	-67.75
-72.63	-64.7
-72.94	-64.09
-73.24	-67.14
-73.24	-72.94
-72.94	-79.65
-72.63	-84.53
-72.33	-86.36
-72.63	-86.67
-73.55	-86.67
-74.16	-86.67
-74.77	-86.06
-74.46	-82.4
-73.85	-76.9
-73.24	-73.24
-73.55	-74.46
-74.16	-79.35
-74.77	-83.01
-74.77	-80.57
-74.46	-72.94
-73.55	-64.39
-72.94	-60.73
-72.94	-61.04
-73.55	-56.76
-74.16	-34.48
-74.46	16.17
-74.16	99.79
-73.24	217.59
-72.63	370.48
-72.94	554.81
-73.55	755
-74.46	935.06
-74.77	1047.67
-74.77	1060.49(R)
-74.16	974.12
-73.85	822.45
-74.16	648.19
-74.77	482.48
-75.38	338.13
-75.07	221.25
-74.46	136.11
-73.55	80.26
-73.24	41.5
-73.24	2.75
-73.85	-42.11
-74.46	-83.01
-75.07	-105.29
-74.77	-106.51
-74.16	-98.88
-73.55	-95.83
-73.24	-100.71
-73.55	-105.59
-74.16	-103.15
-74.16	-94.3
-73.85	-86.67
-73.55	-86.98
-72.94	-95.21
-72.94	-104.98
-73.24	-110.17
-73.85	-108.34
-73.85	-103.15
-73.55	-99.49
-72.94	-99.49
-72.33	-102.54
-72.33	-103.76
-72.94	-100.4
-73.55	-93.08
-74.16	-85.45
-73.85	-79.65
-73.24	-74.46
-72.94	-68.66
-73.55	-61.95
-74.46	-56.76
-74.77	-55.54
-74.77	-58.29
-73.85	-61.95
-72.94	-63.48
-72.63	-60.73
-72.94	-53.71
-73.85	-43.95
-74.46	-33.87
-74.77	-25.63
-74.16	-18.31
-73.55	-10.68
-72.94	-0.61
-72.94	12.51
-73.85	27.16
-74.46	40.89
-74.77	53.41
-74.46	65.31
-73.55	77.82
-72.94	92.47
-72.94	108.64
-73.55	126.04
-74.46	143.13
-74.77	159.61
-74.46	174.56
-73.55	187.07
-72.63	197.14
-72.33	205.08
-72.94	211.79
-73.55	216.98
-73.85	220.03
-73.55	219.12
-72.94	212.4
-72.63	199.58
-73.55	181.27
-74.77	159.61
-75.99	135.8
-76.29	111.69
-75.99	87.89
-75.07	64.09
-74.46	40.59
-74.46	19.23
-75.07	1.83
-76.29	-10.68
-76.9	-19.23
-76.6	-26.86
-75.99	-35.4
-75.07	-45.17
-74.77	-53.71
-75.07	-60.12
-75.68	-64.7
-76.29	-69.27
-75.99	-74.16
-75.38	-77.82
-74.77	-77.51
-74.77	-73.24
-75.07	-67.44
-75.99	-63.78
-76.29	-62.87
-75.99	-63.78
-75.38	-64.7
-75.07	-65.61
-75.07	-66.53
-75.68	-68.05
-76.29	-69.58
-76.29	-69.89
-75.99	-67.75
-75.38	-63.48
-75.07	-59.2
-75.07	-56.76
-75.68	-57.98
-76.29	-62.87
-76.6	-68.05
-76.29	-69.58
-75.68	-64.7
-75.07	-55.24
-74.77	-47
-75.07	-45.17
-75.99	-51.27
-76.6	-61.34
-76.6	-68.05
-75.99	-68.05
-75.38	-62.56
-75.07	-56.15
-75.38	-53.1
-76.29	-54.93
-76.9	-59.51
-76.9	-63.78
-76.29	-65.92
-75.68	-65
-75.68	-61.65
-75.99	-57.68
-76.9	-55.85
-77.51	-57.98
-77.21	-63.48
-76.6	-67.75
-75.68	-67.14
-75.07	-60.73
-74.77	-53.71
-75.07	-51.57
-75.38	-56.15
-75.07	-63.17
-74.77	-65.92
-74.16	-60.73
-74.16	-51.57
-74.46	-44.86
-75.38	-44.86
-75.99	-50.66
-75.99	-56.76
-75.38	-59.51
-74.46	-58.59
-74.16	-56.76
-74.77	-57.37
-75.38	-61.34
-76.29	-66.83
-76.29	-70.5
-75.68	-68.97
-74.77	-62.26
-74.46	-53.71
-74.77	-46.39
-75.38	-43.33
-75.68	-44.25
-75.68	-47.91
-75.07	-52.19
-74.46	-54.93
-74.46	-55.85
-74.46	-55.24
-75.07	-54.32
-75.68	-53.41
-75.68	-52.8
-75.07	-50.96
-74.16	-47
-73.85	-42.42
-73.85	-39.98
-74.46	-40.89
-75.07	-45.17
-74.77	-50.35
-74.46	-54.32
-73.85	-57.07
-73.55	-59.51
-73.85	-61.65
-74.46	-62.56
-74.77	-61.04
-74.77	-57.98
-74.16	-56.15
-73.85	-56.46
-73.55	-58.59
-73.85	-60.12
-74.46	-59.81
-75.07	-58.59
-75.07	-59.51
-74.46	-63.48
-73.55	-69.27
-73.55	-73.55
-73.85	-74.46
-74.46	-71.11
-75.07	-64.39
-75.07	-54.32
-74.46	-42.11
-73.85	-32.96
-73.55	-31.13
-73.24	-37.84
-73.24	-47
-72.94	-51.27
-72.63	-48.22
-72.02	-43.03
-72.02	-44.25
-72.02	-52.19
-72.02	-57.98
-72.33	-52.49
-72.33	-34.48
-72.02	-13.73
-71.72	-3.05
-71.72	-7.32
-71.72	-20.45
-72.02	-32.65
-72.63	-37.54
-72.94	-36.01
-72.94	-32.35
-72.63	-29.91
-72.02	-28.08
-72.02	-24.72
-72.02	-19.84
-72.33	-16.17
-72.63	-17.4
-72.63	-22.89
-72.33	-29.91
-71.72	-35.1
-71.41	-36.62
-71.41	-36.01
-71.72	-37.84
-72.02	-45.47
-72.02	-57.37
-72.02	-68.66
-72.02	-73.24
-72.02	-68.05
-72.02	-55.24
-72.33	-41.5
-72.33	-32.96
-72.33	-33.26
-72.02	-40.28
-71.72	-50.35
-71.72	-59.2
-72.02	-64.09
-72.63	-64.39
-73.24	-60.73
-73.24	-52.8
-72.63	-43.03
-72.02	-34.79
-71.72	-31.74
-71.72	-36.01
-71.72	-45.17
-71.72	-52.8
-71.72	-54.02
-71.72	-48.22
-71.72	-40.89
-71.72	-37.54
-72.02	-40.59
-72.33	-45.47
-72.33	-46.08
-72.33	-38.45
-72.33	-25.94
-72.02	-15.87
-72.33	-15.56
-72.63	-26.86
-72.94	-43.03
-72.94	-53.41
-72.63	-50.05
-72.02	-35.71
-71.72	-21.36
-71.72	-18.92
-72.02	-30.52
-72.33	-47.61
-72.63	-56.15
-72.33	-50.35
-71.72	-35.71
-71.41	-22.89
-71.11	-19.23
-71.72	-24.72
-72.33	-33.57
-72.63	-41.2
-72.33	-44.56
-71.72	-38.15
-71.11	-11.6
-71.11	48.52
-71.72	152.59
-72.33	307.62
-72.63	513
-72.63	756.23
-72.02	1001.59
-71.72	1194.15
-71.72	1276.55(R)
-72.02	1222.53
-72.33	1054.08
-72.02	829.16
-71.72	610.05
-71.41	432.13
-71.41	302.12
-71.41	213.01
-71.41	152.59
-71.41	107.73
-71.41	64.39
-71.41	13.43
-71.41	-41.2
-71.11	-82.4
-71.11	-96.13
-71.41	-86.67
-71.72	-72.33
-72.02	-68.66
-72.02	-76.6
-71.72	-85.75
-71.41	-89.11
-71.41	-88.81
-71.41	-91.55
-71.72	-97.35
-71.72	-100.1
-71.41	-94.6
-71.11	-85.45
-70.8	-84.53
-70.8	-95.52
-71.11	-109.86
-71.11	-113.22
-71.11	-98.57
-70.8	-76.29
-1.22	-72.33
-2.14	-70.19
-2.44	-62.26
-2.14	-53.71
-1.83	-49.44
-2.14	-50.66
-4.27	-55.24
-7.32	-59.2
-8.54	-56.15
-6.1	-37.54
-0.31	7.93
4.88	91.55
6.41	223.69
6.1	410.46
11.29	644.53
31.13	892.03
66.22	1095.58
104.37	1192.32
127.56	1150.21
120.54	989.69
83.01	772.09
28.38	563.35
-26.25	399.78
-67.44	284.42
-89.11	203.25
-92.16	140.38
-79.96	87.59
-57.07	38.76
-29.91	-7.93
-6.71	-47.3
5.8	-68.36
7.93	-67.14
3.66	-51.27
-0.31	-36.62
-1.22	-33.57
0.61	-41.81
3.36	-53.41
4.88	-61.34
5.8	-63.17
6.1	-60.12
5.8	-53.1
5.49	-45.47
5.19	-40.89
5.8	-42.11
7.93	-48.52
11.29	-55.85
14.04	-60.12
15.26	-58.9
14.34	-52.19
13.12	-42.42
14.04	-32.04
18.01	-24.41
23.19	-21.67
26.25	-23.19
26.86	-25.63
25.94	-25.63
27.47	-22.28
32.04	-16.78
38.45	-10.68
43.95	-6.1
46.08	-2.75
45.17	-0.92
42.42	0
39.67	1.83
38.15	5.8
39.06	13.43
43.03	22.58
48.83	29.6
54.32	32.65
57.37	35.1
58.59	42.11
59.51	58.59
61.95	82.09
66.22	106.2
70.8	123.9
74.16	134.58
75.68	141.91
76.9	152.59
79.65	169.98
83.62	192.87
88.81	216.67
92.77	234.99
94.6	243.84
93.69	242
89.72	231.93
83.31	219.42
75.68	207.82
68.66	197.14
64.09	185.24
61.65	171.2
59.2	155.64
54.93	140.69
47.91	126.04
38.76	108.03
29.91	85.45
23.8	61.04
20.45	41.2
19.23	30.52
18.92	27.16
18.92	24.41
18.62	18.31
16.17	8.85
11.29	0.92
3.97	-1.83
-2.44	-2.75
-6.41	-6.71
-7.63	-15.87
-8.54	-26.55
-10.07	-31.43
-12.21	-25.63
-13.43	-12.82
-12.51	-3.97
-10.68	-8.85
-9.16	-28.69
-10.07	-51.27
-12.21	-59.2
-14.34	-42.11
-15.26	-7.93
-14.34	20.75
-12.51	23.8
-10.68	-2.75
-9.16	-40.28
-8.85	-62.56
-10.99	-57.98
-14.34	-37.54
-17.09	-23.8
-17.09	-30.21
-14.34	-48.22
-10.99	-56.46
-9.16	-43.33
-9.77	-19.84
-10.68	-9.16
-10.99	-25.33
-9.77	-60.73
-7.63	-90.64
-5.49	-93.99
-3.66	-68.36
-2.44	-30.52
-2.44	-1.22
-2.75	2.75
-3.66	-23.19
-3.66	-67.14
-3.05	-105.29
-1.83	-116.88
0	-93.99
1.53	-47.61
2.44	-3.36
2.14	16.48
1.22	4.27
-0.92	-30.21
-3.36	-67.14
-6.71	-88.2
-10.99	-85.14
-14.65	-65.31
-15.87	-45.78
-13.73	-40.28
-10.07	-52.8
-7.32	-74.16
-7.32	-89.42
-9.16	-88.5
-11.29	-72.63
-12.51	-51.88
-13.43	-37.23
-14.04	-34.79
-14.95	-42.72
-15.56	-52.49
-15.87	-57.37
-16.17	-54.93
-17.09	-50.05
-17.4	-50.35
-15.56	-60.42
-12.21	-76.6
-9.46	-88.5
-9.46	-86.06
-12.51	-67.75
-15.87	-43.64
-17.09	-28.69
-14.34	-33.26
-9.46	-54.63
-4.88	-77.82
-2.14	-86.67
-1.53	-74.46
-1.53	-50.35
-2.44	-32.65
-4.27	-33.57
-7.02	-49.74
-9.16	-64.39
-9.16	-63.78
-6.71	-46.08
-4.27	-23.5
-3.36	-13.12
-4.58	-21.97
-6.1	-43.64
-6.41	-64.7
-6.41	-74.16
-7.02	-68.05
-9.77	-51.27
-13.43	-34.18
-16.17	-25.33
-16.17	-27.47
-14.65	-36.62
-13.43	-46.08
-12.82	-50.05
-11.29	-47.91
-8.54	-43.33
-5.8	-42.11
-5.49	-47
-8.54	-55.54
-14.04	-61.34
-18.01	-60.12
-18.31	-51.27
-14.95	-38.76
-10.99	-27.77
-8.54	-24.11
-8.85	-30.52
-9.77	-45.17
-10.38	-62.26
-9.16	-72.02
-7.02	-68.05
-5.19	-52.19
-5.19	-34.48
-6.71	-25.33
-7.93	-28.38
-7.32	-37.84
-4.88	-43.95
-2.44	-41.5
0	-32.96
1.83	-24.41
3.05	-22.58
3.05	-28.99
1.53	-37.54
-1.83	-39.37
-5.19	-32.35
-6.71	-21.97
-6.41	-18.92
-6.1	-26.86
-7.93	-39.98
-11.6	-47.3
-14.95	-43.33
-15.26	-32.04
-12.21	-23.19
-7.02	-22.28
-3.97	-28.38
-5.19	-37.54
-10.07	-44.56
-17.09	-46.69
-21.97	-44.56
-23.19	-41.5
-21.06	-42.42
-17.7	-48.52
-15.87	-55.54
-15.87	-57.98
-17.09	-54.02
-18.01	-46.39
-18.62	-39.06
-18.01	-34.18
-17.4	-29.91
-16.48	-25.02
-15.26	-19.53
-14.34	-14.65
-13.73	-10.68
-13.73	-7.63
-14.04	-7.32
-14.34	-11.6
-13.73	-19.23
-12.51	-26.86
-10.38	-28.69
-7.63	-22.58
-4.58	-11.6
-1.53	-0.92
0.61	4.88
1.22	3.97
-0.61	-1.83
-5.19	-10.07
-10.68	-16.17
-14.34	-13.73
-13.43	7.02
-7.93	55.85
-1.22	143.43
1.22	278.32
-1.83	465.7
-4.27	699.46
3.97	947.57
26.86	1152.34
56.15	1249.08(R)
74.77	1202.09
65.31	1031.19
24.41	802.31
-34.48	588.99
-90.94	430.6
-128.78	325.32
-143.13	251.46
-137.02	190.12
-117.49	134.58
-89.42	84.23
-58.9	36.93
-32.35	-6.1
-15.26	-38.76
-9.16	-54.02
-9.77	-52.19
-11.6	-43.64
-10.99	-38.76
-7.63	-41.5
-3.97	-47.61
-1.53	-52.49
-0.31	-54.32
-0.31	-55.24
-0.31	-57.07
-0.31	-58.29
-0.31	-58.29
0	-55.85
1.22	-51.88
3.36	-47
6.1	-41.5
8.85	-36.32
10.68	-33.26
11.6	-33.57
11.29	-36.32
9.77	-40.28
8.24	-43.64
7.63	-45.78
7.93	-46.39
8.85	-45.47
8.85	-43.95
8.54	-42.42
7.93	-41.5
7.93	-41.5
8.85	-41.2
10.07	-39.06
11.29	-33.57
12.21	-25.94
13.43	-18.62
15.26	-13.43
17.7	-10.99
20.14	-9.16
22.58	-5.49
25.02	1.22
28.38	10.99
32.04	22.28
36.32	34.48
40.59	47.3
44.25	60.42
47.3	74.16
50.35	88.5
53.41	104.68
56.76	122.07
60.73	139.77
64.39	155.64
66.83	168.15
67.75	178.22
67.44	187.38
66.53	195.92
64.7	201.42
62.56	200.5
59.51	191.96
55.24	177.31
49.74	160.22
43.03	143.13
36.32	126.95
29.91	110.17
24.41	91.55
20.14	70.19
16.78	47.91
13.73	28.69
10.38	13.73
7.02	3.36
3.97	-5.19
0.92	-13.43
-1.22	-21.06
-2.75	-25.94
-4.27	-28.38
-5.49	-29.91
-7.63	-32.65
-10.07	-37.84
-12.82	-41.81
-15.56	-42.42
-17.4	-39.06
-18.31	-36.01
-18.92	-36.93
-19.53	-41.81
-20.45	-48.22
-21.06	-52.19
-20.75	-51.57
-19.23	-47
-17.4	-39.98
-15.26	-32.65
-13.73	-26.25
-12.82	-21.97
-12.51	-20.75
-12.51	-23.19
-12.82	-28.38
-12.82	-35.1
-12.21	-40.28
-10.68	-42.42
-8.24	-40.28
-5.19	-36.62
-2.44	-35.1
-0.61	-38.76
-0.31	-47.61
-1.53	-57.68
-3.97	-63.78
-6.41	-63.78
-8.24	-57.37
-8.85	-47.61
-8.54	-38.76
-7.93	-33.26
-7.32	-33.57
-7.02	-38.76
-7.02	-45.78
-6.71	-52.19
-6.1	-56.15
-6.1	-58.29
-6.41	-60.12
-7.02	-61.34
-8.54	-62.56
-10.07	-65
-11.6	-68.36
-13.12	-73.24
-14.34	-77.21
-15.26	-78.43
-15.56	-76.29
-15.87	-72.33
-16.17	-69.89
-16.48	-70.19
-17.09	-73.24
-17.7	-78.43
-18.31	-84.53
-18.01	-89.42
-17.7	-90.94
-16.78	-88.2
-16.48	-81.79
-16.48	-74.77
-16.48	-70.5
-16.48	-70.5
-15.87	-72.94
-14.95	-74.16
-13.73	-72.02
-12.51	-68.05
-10.99	-67.75
-9.77	-75.38
-9.46	-89.11
-10.07	-102.23
-12.21	-107.12
-14.65	-100.71
-16.17	-87.89
-16.78	-76.6
-15.87	-72.33
-14.34	-75.68
-13.12	-83.92
-13.12	-93.08
-14.04	-100.4
-14.95	-104.37
-15.87	-104.98
-16.17	-102.54
-16.17	-99.18
-16.17	-95.52
-16.48	-91.25
-18.01	-86.36
-19.84	-82.09
-21.97	-81.79
-23.5	-87.59
-24.11	-96.74
-23.5	-105.59
-21.97	-109.86
-21.06	-108.34
-20.75	-103.76
-21.97	-98.57
-23.19	-94.91
-24.11	-92.47
-24.11	-90.03
-23.8	-87.28
-23.5	-84.23
-22.89	-82.4
-21.36	-82.7
-19.53	-84.84
-18.31	-87.89
-17.4	-88.5
-17.09	-85.45
-16.17	-80.26
-14.65	-76.6
-12.82	-78.43
-11.29	-84.23
-11.29	-89.42
-12.51	-88.81
-14.34	-82.7
-16.48	-75.99
-18.92	-73.85
-20.75	-77.82
-21.06	-85.75
-20.75	-93.38
-19.84	-97.96
-19.23	-96.44
-19.53	-88.81
-20.14	-77.51
-20.45	-67.75
-20.45	-65.31
-19.23	-71.41
-18.31	-83.31
-17.7	-95.83
-18.01	-104.37
-19.23	-106.81
-20.14	-104.98
-20.45	-99.18
-19.84	-92.16
-19.53	-86.98
-21.06	-85.45
-23.5	-87.59
-25.94	-90.03
-26.55	-88.5
-25.63	-81.18
-24.11	-72.02
-22.89	-67.44
-23.19	-71.72
-23.5	-83.62
-22.89	-95.52
-21.36	-101.01
-19.53	-97.35
-18.62	-88.2
-18.01	-78.13
-17.09	-72.02
-15.26	-70.8
-12.51	-72.33
-10.38	-74.46
-9.46	-75.07
-9.77	-74.77
-9.46	-75.07
-8.24	-76.6
-6.41	-78.13
-6.1	-77.21
-7.93	-72.33
-11.29	-65
-13.73	-59.51
-14.04	-59.81
-12.21	-67.14
-10.07	-79.35
-9.46	-92.16
-10.68	-99.79
-12.51	-98.57
-14.65	-89.11
-16.48	-74.77
-17.7	-63.78
-18.62	-60.12
-19.53	-63.78
-20.14	-68.66
-20.45	-69.58
-20.14	-65.61
-19.53	-61.95
-18.62	-64.39
-18.01	-73.55
-18.01	-83.92
-18.31	-89.11
-18.62	-86.36
-18.62	-78.74
-18.92	-71.72
-20.14	-70.5
-22.28	-74.77
-23.5	-79.04
-21.36	-75.68
-14.34	-54.93
-4.58	-6.71
3.66	79.04
5.49	213.32
2.75	403.44
3.66	641.17
17.7	891.42
46.08	1092.22
78.43	1181.03(R)
96.74	1130.98
87.59	969.54
52.19	761.41
3.66	568.54
-43.03	416.87
-77.51	298.77
-95.83	198.67
-98.27	110.78
-85.75	39.98
-61.95	-10.68
-33.87	-46.39
-11.29	-75.38
-0.31	-97.96
-0.31	-110.78
-6.1	-113.53
-11.29	-109.86
-12.82	-106.51
-11.9	-105.29
-10.68	-105.59
-10.38	-105.9
-10.99	-107.73
-11.6	-114.75
-11.6	-126.04
-11.6	-137.94
-10.99	-145.87
-9.46	-147.4
-7.63	-141.91
-5.8	-131.84
-4.27	-119.93
-3.66	-109.25
-3.97	-102.54
-3.97	-100.71
-3.36	-102.54
-2.14	-105.59
-0.31	-108.64
2.14	-110.78
5.19	-110.78
8.24	-106.2
11.29	-95.21
14.34	-80.57
16.78	-68.05
19.23	-62.56
21.06	-64.39
21.97	-69.58
21.97	-73.55
21.36	-75.99
21.36	-76.29
22.89	-73.55
25.63	-67.14
29.3	-57.07
32.96	-45.17
36.01	-33.87
38.76	-23.5
41.2	-11.29
43.95	4.88
47.3	24.41
50.96	44.56
54.93	61.95
58.59	75.68
61.65	87.28
63.48	99.18
65	113.53
66.53	131.23
68.05	150.15
68.66	166.63
67.75	177.61
64.39	180.97
60.12	177.31
55.54	167.24
51.57	151.98
47.61	132.75
42.72	112
36.93	92.77
30.52	77.82
24.72	66.53
19.53	55.54
15.26	43.03
10.99	28.38
6.71	14.65
2.44	3.36
-1.53	-5.49
-4.58	-12.51
-6.71	-18.01
-7.32	-21.06
-7.32	-20.75
-7.02	-17.7
-6.71	-14.04
-7.32	-12.51
-8.85	-14.04
-11.29	-17.4
-14.04	-20.75
-15.56	-22.89
-15.56	-24.72
-14.34	-28.69
-13.12	-36.01
-12.82	-45.47
-13.43	-53.41
-14.95	-58.29
-16.48	-59.81
-17.7	-60.73
-18.01	-61.65
-17.4	-61.95
-15.87	-60.73
-14.65	-57.37
-14.65	-54.32
-15.26	-54.02
-15.87	-55.85
-14.95	-57.07
-11.6	-55.24
-6.41	-50.35
-0.92	-43.95
4.58	-36.01
9.46	-23.5
16.17	0.61
27.77	41.5
45.78	100.71
69.58	175.78
94.6	265.2
114.14	370.48
120.54	496.52
109.86	647.89
81.18	821.53
37.23	1005.86
-17.7	1184.39
-79.04	1341.25
-145.57	1469.12
-218.81	1570.74
-298.77	1654.05
-381.16	1727.91
-452.58	1797.18
-496.83	1866.76
-501.4	1943.05
-468.75	2032.47
-415.65	2134.4
-363.16	2227.78
-322.88	2271.12(R)
-294.49	2212.52
-269.47	2015.38
-242	1684.27
-212.71	1274.11
-183.41	866.7
-152.28	522.16
-113.53	253.91
-65.31	35.1
-14.95	-162.96
24.72	-338.75
44.25	-462.95
44.86	-515.14
37.23	-511.47
32.96	-494.38
36.62	-498.35
45.17	-528.56
52.49	-565.49
55.24	-588.68
54.93	-593.87
54.32	-590.52
54.93	-591.13
57.98	-600.89
62.56	-616.15
67.75	-630.49
72.94	-637.82
77.21	-639.04
81.18	-639.34
85.14	-645.75
89.42	-659.79
94.3	-675.66
99.18	-687.56
103.76	-694.27
108.34	-700.68
113.53	-712.28
119.93	-730.59
126.65	-753.48
133.06	-777.28
138.55	-801.7
144.35	-825.81
151.06	-848.69
159.61	-867.31
169.07	-880.13
178.83	-888.98
188.29	-898.13
198.36	-910.95
209.35	-927.43
221.86	-943.3
234.07	-951.54
245.36	-949.71
254.21	-938.72
260.31	-922.55
263.98	-903.93
264.28	-882.26
261.54	-854.49
255.74	-818.48
248.41	-773.93
240.17	-724.79
230.71	-673.22
219.12	-621.03
205.38	-566.1
189.82	-505.37
172.73	-437.62
154.42	-364.99
135.5	-294.8
115.97	-234.38
96.74	-185.85
77.82	-146.79
59.51	-111.69
41.5	-79.35
25.94	-50.35
13.73	-28.08
5.49	-12.51
0.31	-2.44
-3.66	3.97
-7.02	7.32
-9.77	8.24
-12.82	7.63
-16.48	5.49
-21.67	-1.53
-26.86	-14.65
-31.43	-30.82
-33.87	-42.42
-33.87	-43.33
-32.65	-35.71
-31.43	-28.08
-31.74	-28.38
-33.87	-37.54
-37.23	-48.52
-39.37	-53.41
-38.45	-47.91
-35.1	-36.62
-30.52	-29.6
-26.86	-35.71
-25.63	-54.32
-26.86	-73.55
-28.69	-79.04
-29.91	-65.92
-29.6	-45.47
-27.47	-34.18
-24.11	-39.98
-21.06	-55.54
-20.45	-66.53
-21.67	-65
-23.5	-55.24
-23.8	-47.3
-21.97	-43.95
-18.31	-40.28
-14.65	-31.13
-12.51	-19.84
-12.82	-15.87
-15.87	-24.41
-21.36	-39.06
-26.25	-44.86
-26.55	-34.18
-21.67	-13.43
-14.04	3.05
-8.85	3.66
-10.07	-10.99
-16.17	-30.52
-23.19	-43.64
-27.16	-45.78
-27.47	-38.15
-27.16	-25.94
-28.08	-14.95
-30.21	-10.99
-31.13	-14.95
-29.6	-24.41
-26.86	-34.18
-25.63	-40.89
-26.86	-44.56
-29.6	-43.33
-31.74	-35.71
-31.74	-20.75
-29.3	-5.19
-26.25	0.92
-24.72	-8.24
-25.33	-27.77
-25.94	-46.08
-25.02	-53.41
-23.19	-50.05
-21.67	-40.89
-22.28	-30.52
-25.63	-20.45
-28.69	-12.82
-29.3	-12.82
-27.16	-24.41
-23.5	-41.81
-20.45	-53.41
-18.92	-48.22
-18.92	-27.47
-19.84	-6.1
-20.75	0.31
-20.45	-11.9
-18.31	-30.82
-14.34	-38.76
-10.68	-28.38
-8.85	-9.46
-10.07	2.14
-14.34	-2.44
-18.92	-18.62
-21.06	-32.35
-20.14	-36.62
-17.09	-35.1
-14.65	-32.96
-15.56	-29.91
-19.84	-21.97
-24.41	-8.54
-25.94	2.44
-23.5	-1.53
-18.62	-24.41
-15.26	-52.49
-15.56	-64.09
-18.31	-47
-21.36	-11.29
-23.19	16.78
-24.11	13.43
-24.41	-25.02
-24.41	-74.46
-24.11	-97.05
-23.19	-70.19
-21.06	-7.63
-18.01	47.91
-14.95	54.93
-13.12	9.16
-13.12	-52.19
-14.65	-78.43
-16.48	-49.74
-17.09	4.58
-17.09	35.4
-17.09	18.31
-17.09	-27.16
-16.48	-57.37
-14.65	-44.25
-12.82	3.36
-12.82	46.39
-14.65	52.19
-16.48	19.84
-15.87	-25.94
-13.12	-54.32
-10.07	-47
-8.85	-10.99
-10.07	28.69
-13.12	47.3
-15.26	33.87
-15.26	-2.75
-13.73	-39.37
-11.6	-53.1
-10.68	-37.23
-10.99	-6.41
-13.43	16.17
-17.4	15.26
-20.75	-10.07
-21.97	-42.11
-20.14	-56.76
-15.87	-39.98
-11.9	0
-10.07	37.23
-10.38	43.33
-11.29	9.77
-11.6	-42.11
-11.9	-73.85
-12.51	-61.65
-13.43	-19.23
-14.34	17.7
-13.73	22.58
-12.51	-43.95
-14.04	-25.02
-14.65	7.02
-13.12	29.3
-10.68	26.25
-8.24	-2.44
-7.93	-39.37
-9.46	-58.59
-10.99	-44.25
-9.77	-4.27
-5.19	34.48
-0.31	45.78
1.53	25.63
-2.14	-7.32
-8.85	-30.52
-14.95	-33.87
-17.09	-24.41
-15.87	-13.73
-13.43	-8.24
-12.82	-6.1
-14.04	-4.58
-15.56	-3.97
-16.17	-5.19
-15.87	-6.71
-14.95	-6.41
-14.34	-3.66
-14.34	-1.22
-14.95	-2.44
-16.48	-7.63
-18.01	-13.73
-19.23	-16.78
-19.23	-14.95
-18.31	-9.77
-16.48	-3.66
-14.65	1.83
-13.12	5.8
-11.9	7.93
-11.29	7.02
-11.29	2.75
-11.9	-3.66
-12.82	-9.46
-13.43	-12.21
-12.82	-11.6
-11.6	-9.46
-10.07	-7.93
-8.54	-8.85
-7.63	-10.38
-7.63	-10.68
-8.24	-7.93
-8.54	-3.05
-8.54	1.83
-7.63	4.88
-6.41	4.88
-5.19	3.36
-4.58	1.53
-4.88	0.92
-6.1	0.61
-7.63	0.31
-9.46	-0.61
-10.68	-1.53
-10.99	-2.14
-11.29	-1.22
-11.29	0
-11.29	1.53
-11.6	3.05
-11.29	4.27
-10.68	5.8
-10.07	8.24
-9.16	11.29
-8.54	13.43
-8.54	14.04
-9.16	12.51
-10.07	10.07
-10.99	7.63
-10.99	6.41
-10.99	6.1
-10.68	5.8
-10.68	3.66
-10.38	-0.61
-9.77	-5.49
-9.16	-7.32
-8.85	-3.05
-9.16	6.41
-9.16	18.62
-8.85	27.77
-8.54	30.82
-9.16	26.55
-9.16	20.14
-6.71	20.75
-1.22	42.11
6.1	97.66
10.38	200.5
8.54	359.19
4.58	574.65
7.32	827.33
24.41	1070.25
53.1	1237.49
79.04	1273.19(R)
84.53	1166.38
60.42	961.3
12.82	731.2
-40.59	536.8
-85.14	397.64
-111.69	302.12
-119.32	229.19
-110.78	164.49
-89.42	104.37
-59.81	48.22
-30.21	-3.05
-8.85	-44.86
0.61	-70.19
0.31	-77.51
-3.66	-73.85
-6.41	-70.19
-5.8	-71.72
-4.27	-76.6
-3.36	-79.96
-3.66	-79.04
-4.58	-76.29
-4.88	-74.16
-4.27	-74.77
-3.05	-78.74
-1.83	-85.75
-0.92	-94.6
0	-103.45
0.92	-108.64
2.14	-108.34
3.36	-102.54
4.58	-93.08
5.8	-83.62
7.02	-76.29
8.24	-72.02
10.07	-71.11
11.9	-72.94
13.43	-75.99
14.34	-78.74
14.65	-80.57
14.04	-79.65
13.43	-76.9
13.12	-72.33
13.73	-67.44
15.26	-63.48
18.01	-61.04
20.45	-60.12
21.97	-59.81
22.89	-56.15
23.19	-46.69
24.72	-30.82
27.16	-11.29
30.82	5.8
34.18	16.78
36.62	23.5
37.84	31.74
38.76	46.08
40.59	66.22
43.95	86.06
48.52	101.93
53.1	115.05
56.76	130.92
59.81	153.5
62.56	180.66
64.39	205.69
65.61	223.08
65.61	231.32
63.78	232.85
60.12	229.19
55.85	220.64
51.27	206.91
47.61	189.82
44.56	173.03
41.2	157.17
37.23	140.38
32.96	119.63
29.3	97.05
26.55	76.9
24.11	64.39
21.36	59.51
18.01	57.68
14.04	53.1
10.07	43.64
6.1	30.82
2.44	18.01
-0.92	6.41
-3.66	-4.27
-5.8	-14.04
-7.32	-22.58
-7.93	-26.86
-7.93	-25.63
-7.93	-21.36
-7.93	-16.78
-8.54	-14.65
-9.46	-14.95
-10.68	-16.78
-11.6	-18.92
-12.21	-22.28
-12.21	-26.25
-12.21	-28.08
-12.51	-25.94
-12.82	-20.45
-12.51	-15.56
-11.9	-14.95
-11.29	-19.84
-10.38	-28.69
-9.16	-37.54
-8.24	-43.64
-7.32	-45.47
-7.02	-42.11
-6.71	-34.79
-6.1	-26.25
-4.88	-18.92
-3.05	-14.95
-1.22	-14.34
0.31	-16.17
1.22	-19.23
1.83	-21.67
1.83	-20.45
2.14	-13.73
1.83	-3.36
1.83	4.58
2.44	4.27
3.97	-5.19
6.71	-19.53
9.16	-30.82
10.07	-33.87
8.24	-29.91
4.58	-24.72
0.31	-25.63
-3.05	-32.96
-4.27	-43.64
-3.66	-51.88
-1.83	-54.93
-0.61	-54.63
0	-53.71
-0.61	-53.1
-1.53	-52.49
-2.75	-51.57
-4.27	-51.88
-5.49	-54.32
-6.1	-57.98
-7.02	-59.51
-7.32	-57.37
-8.24	-53.1
-8.85	-51.57
-9.46	-57.07
-9.46	-68.05
-9.77	-79.35
-10.38	-84.23
-12.51	-79.65
-14.65	-69.27
-16.78	-60.73
-17.7	-60.12
-17.09	-68.36
-15.56	-82.7
-14.04	-97.35
-13.43	-107.12
-12.82	-109.56
-12.51	-103.76
-11.9	-91.55
-11.6	-78.74
-11.6	-69.89
-11.6	-67.75
-11.29	-70.5
-10.99	-74.77
-10.07	-77.51
-8.85	-78.13
-7.93	-77.51
-7.63	-76.9
-8.54	-75.68
-11.6	-74.46
-15.56	-73.24
-19.53	-72.63
-21.36	-74.16
-21.06	-79.04
-18.92	-86.36
-16.78	-92.47
-16.17	-93.38
-15.87	-87.89
-15.56	-79.65
-14.95	-72.63
-13.73	-70.5
-13.12	-73.24
-13.43	-79.35
-13.73	-88.5
-14.34	-98.27
-14.65	-104.68
-14.95	-102.54
-15.56	-89.42
-16.17	-69.58
-16.48	-52.49
-16.17	-47.3
-15.56	-54.63
-14.65	-68.05
-13.43	-79.04
-12.21	-82.09
-11.6	-77.82
-11.6	-71.11
-11.9	-66.83
-12.51	-65.61
-12.21	-66.53
-10.68	-67.44
-8.54	-67.75
-6.41	-67.14
-5.19	-65.92
-4.27	-64.09
-3.36	-63.78
-1.83	-66.53
-0.92	-72.02
-0.61	-77.21
-1.53	-78.74
-4.27	-75.07
-8.24	-69.27
-11.9	-66.22
-14.65	-68.05
-15.26	-72.63
-14.65	-74.77
-13.73	-72.02
-13.73	-66.22
-14.34	-61.95
-14.65	-60.73
-13.73	-61.34
-12.21	-60.73
-10.99	-58.59
-10.38	-57.68
-9.77	-61.04
-8.54	-66.83
-6.71	-68.66
-5.49	-62.56
-6.1	-51.57
-7.63	-43.33
-9.46	-44.25
-10.07	-53.41
-9.46	-63.17
-8.85	-65.61
-8.54	-59.51
-9.16	-50.35
-9.77	-44.25
-10.07	-43.03
-9.46	-45.17
-8.85	-47.3
-7.93	-47.61
-6.71	-47.91
-4.88	-50.05
-2.44	-53.71
-0.31	-55.85
0.92	-53.71
1.53	-47.61
2.44	-40.89
3.97	-36.62
5.19	-36.32
5.49	-36.93
3.97	-36.93
1.22	-36.62
-1.53	-39.67
-3.05	-46.08
-3.66	-51.88
-3.66	-51.88
-3.97	-44.25
-4.88	-33.26
-5.49	-26.25
-6.1	-28.38
-6.41	-38.15
-7.02	-49.13
-7.93	-54.32
-9.16	-51.57
-9.77	-44.86
-9.77	-40.89
-9.46	-42.72
-8.85	-48.22
-8.54	-51.27
-8.85	-46.08
-10.07	-34.79
-10.99	-24.11
-11.9	-20.75
-12.21	-25.94
-11.29	-32.65
-10.07	-33.26
-8.85	-25.33
-8.54	-14.65
-8.85	-11.9
-9.77	-21.06
-10.07	-38.15
-9.46	-51.88
-8.24	-55.54
-6.71	-50.66
-4.88	-44.25
-3.66	-42.42
-2.14	-43.95
-0.31	-42.42
1.83	-34.79
3.66	-24.11
4.58	-15.56
3.66	-12.21
1.22	-12.21
-2.14	-12.82
-4.58	-12.82
-5.8	-14.95
-4.88	-21.36
-2.75	-31.43
-1.22	-42.42
-0.61	-50.05
-0.92	-52.8
-1.22	-50.66
-1.22	-45.17
-1.53	-37.54
-2.75	-29.3
-3.97	-21.67
-4.88	-16.48
-3.05	-13.43
-1.53	-14.04
-1.22	-16.17
-1.83	-20.14
-3.05	-25.63
-3.97	-29.6
-5.19	-29.91
-6.41	-27.16
-7.32	-25.02
-6.71	-27.16
-5.19	-32.65
-2.75	-37.54
-0.61	-36.93
0.61	-29.6
0.31	-19.53
0	-12.21
-0.31	-10.99
0.31	-14.65
1.53	-18.62
3.05	-20.75
4.27	-22.58
5.8	-27.16
7.32	-33.57
8.85	-36.62
10.07	-31.13
10.38	-15.56
10.38	3.66
9.46	15.56
7.32	14.04
4.27	1.83
1.22	-12.21
-1.53	-21.67
-2.44	-24.11
-1.83	-22.28
-0.31	-19.23
0.61	-16.48
0.92	-13.43
0.61	-11.9
0.31	-13.43
-0.31	-16.78
-0.92	-18.62
-1.22	-16.48
-1.83	-10.99
-2.44	-6.1
-2.44	-5.19
-2.44	-8.24
-2.75	-13.43
-3.05	-17.09
-2.75	-18.01
-2.14	-17.09
-1.22	-14.65
-0.92	-10.99
-1.53	-6.1
-2.75	-1.83
-3.36	1.22
-2.44	2.14
0	1.22
1.83	-0.61
2.75	-3.66
3.05	-6.1
3.66	-6.71
5.19	-3.66
7.02	3.36
8.24	10.38
8.54	13.43
8.54	11.6
8.54	9.46
8.54	11.6
7.63	19.53
5.8	28.99
3.36	35.1
1.22	36.62
0.31	36.01
0.92	36.93
1.83	39.37
2.75	42.11
3.36	42.42
3.66	39.37
3.97	33.57
4.58	24.72
5.19	14.34
5.49	4.58
5.49	-2.44
5.49	-5.19
5.49	-4.58
5.19	-2.14
4.88	-0.61
4.27	0
3.66	-0.31
3.97	0
4.88	1.53
5.8	4.88
5.8	9.16
5.19	12.21
4.27	11.6
3.97	7.32
4.27	2.14
5.19	0.92
5.49	5.19
5.8	12.21
6.1	16.78
6.41	16.17
7.63	11.6
8.85	7.93
10.38	8.24
12.21	11.9
14.65	14.65
16.78	14.34
18.01	12.21
18.01	10.68
16.17	10.68
12.82	10.99
9.16	9.77
5.19	7.02
1.83	4.88
0.31	5.19
1.53	7.32
4.58	9.77
7.93	10.99
9.46	10.68
7.93	10.07
3.97	10.68
0.92	13.12
0.61	18.31
2.75	24.72
5.49	30.21
7.02	32.65
5.8	31.43
3.66	28.99
1.53	27.77
0.61	29.91
1.53	33.26
3.66	35.1
5.49	33.87
6.1	31.43
5.8	32.35
4.88	39.67
4.27	52.19
3.97	64.09
3.66	68.66
3.97	63.78
5.49	54.63
10.38	52.49
18.01	72.33
26.55	126.34
32.04	222.78
32.35	368.04
31.13	564.88
36.62	801.7
56.15	1041.26
87.59	1222.53
118.1	1283.87(R)
128.48	1202.39
106.81	1011.66
57.68	784.61
-1.83	589.9
-53.1	456.24
-85.14	372.31
-96.74	309.45
-91.55	246.58
-73.24	180.97
-46.08	120.54
-17.7	72.63
3.36	41.5
11.9	26.86
9.46	23.5
3.05	25.02
-1.22	25.63
-0.92	24.41
2.44	21.67
7.02	17.4
10.68	11.6
13.43	5.8
13.73	4.27
11.9	9.16
8.85	17.7
6.41	23.5
5.8	21.67
7.32	13.43
9.77	5.49
11.9	4.58
13.43	10.99
15.26	18.62
18.01	21.36
20.75	17.4
23.5	10.68
24.72	8.24
24.72	11.9
24.72	18.62
25.63	23.5
28.38	25.63
32.04	29.3
35.71	37.84
39.06	48.22
41.81	51.88
43.33	44.25
43.33	29.6
41.81	19.23
39.37	22.28
38.45	36.93
39.98	54.63
43.03	68.36
45.78	76.9
47.3	83.92
47.91	92.16
50.05	100.4
54.32	106.2
60.12	108.64
65.92	111.08
69.27	117.8
70.5	132.45
70.8	154.42
71.11	179.44
71.41	202.64
72.63	220.95
74.46	233.15
76.9	241.09
79.65	248.11
81.18	256.65
80.26	265.5
77.21	271.61
72.94	271.3
68.05	263.37
63.78	250.85
59.81	238.34
56.46	227.66
52.49	216.67
47.91	201.42
42.42	181.88
37.23	162.05
33.87	145.87
32.65	134.89
32.35	126.04
31.13	114.44
27.47	97.05
22.89	75.68
18.62	58.29
16.48	52.19
16.17	59.2
15.87	72.33
14.04	79.96
10.38	73.55
7.02	54.32
5.19	32.96
5.8	21.97
7.32	26.25
7.63	41.2
6.41	56.46
4.58	60.73
3.36	50.05
2.75	31.13
2.75	19.23
3.36	26.25
4.27	52.49
5.19	81.79
5.19	90.33
4.58	66.83
3.97	25.02
3.05	-4.88
2.14	-0.31
0.31	36.01
-2.14	75.38
-4.27	85.14
-4.58	57.37
-2.75	13.43
-0.31	-12.51
0.92	0.31
0.61	42.72
-0.92	80.57
-1.53	85.75
-0.61	55.54
2.44	11.6
6.1	-18.01
9.46	-19.84
11.9	-1.22
13.43	20.45
14.95	34.18
16.48	38.76
17.4	35.4
16.78	23.19
14.34	2.75
10.99	-18.62
7.63	-25.02
4.58	-5.8
2.44	32.65
2.14	65.92
3.05	65
4.58	22.28
5.49	-42.11
3.97	-88.5
0.61	-85.75
-3.05	-32.65
-4.88	38.45
-4.27	83.62
-1.83	73.55
0.31	15.56
0.31	-50.96
-1.83	-84.23
-4.58	-68.97
-6.1	-26.25
-7.02	9.16
-8.24	16.17
-9.46	0.92
-9.46	-17.09
-6.71	-26.25
-2.44	-27.77
0.31	-27.47
0.31	-26.25
-2.75	-20.45
-6.41	-10.38
-8.24	-1.83
-7.02	-0.31
-4.88	-5.49
-2.75	-12.82
-0.92	-16.48
0.31	-14.95
1.22	-9.77
1.53	-4.88
0.92	-4.58
0	-10.68
-0.61	-19.23
-1.22	-21.67
-1.53	-12.51
-2.14	1.83
-2.75	10.38
-3.66	7.32
-4.58	-2.14
-6.41	-10.07
-8.24	-12.82
-8.85	-15.56
-7.02	-22.89
-3.36	-28.08
-0.61	-21.67
-0.61	-3.05
-3.36	12.82
-5.49	10.07
-4.88	-11.6
-2.14	-36.01
-0.31	-43.33
-1.83	-27.16
-6.1	-0.92
-9.46	15.26
-9.16	10.99
-5.8	-7.93
-2.14	-24.11
-1.53	-25.33
-3.97	-12.82
-6.71	0
-7.93	0
-8.24	-14.04
-8.54	-28.99
-8.85	-29.91
-7.93	-14.34
-4.88	3.97
-1.53	9.77
-0.31	-0.61
-1.83	-17.09
-4.88	-25.33
-6.1	-18.62
-3.66	-1.83
1.53	13.43
7.32	18.62
10.38	14.34
9.46	4.58
3.97	-5.19
-3.97	-10.07
-10.07	-9.77
-10.99	-9.16
-6.1	-11.9
0.92	-18.31
5.49	-23.8
4.88	-21.97
0.61	-11.29
-3.97	2.14
-5.19	9.46
-3.66	6.41
-1.53	-4.27
-0.61	-16.17
-1.22	-23.5
-2.14	-22.28
-2.14	-14.65
-1.22	-2.75
-0.31	7.63
0.31	10.99
0	5.8
-1.22	-3.05
-3.36	-9.16
-5.8	-11.6
-7.63	-14.34
-7.93	-21.36
-7.63	-33.26
-6.71	-43.95
-6.41	-45.17
-6.1	-35.4
-5.19	-19.23
-3.66	-2.75
-1.22	9.46
0.92	14.95
2.14	14.34
1.83	8.85
0.61	2.14
-0.61	-2.14
-0.92	-1.53
-0.61	3.66
-0.92	9.46
-2.44	12.51
-4.58	11.9
-7.02	9.16
-8.24	6.41
-7.93	4.88
-7.02	3.36
-5.8	1.22
-4.88	-0.92
-3.97	-1.83
-3.05	-0.92
-1.22	-72.33
-2.14	-70.19
-2.44	-62.26
-2.14	-53.71
-1.83	-49.44
-2.14	-50.66
-4.27	-55.24
-7.32	-59.2
-8.54	-56.15
-6.1	-37.54
-0.31	7.93
4.88	91.55
6.41	223.69
6.1	410.46
11.29	644.53
31.13	892.03
66.22	1095.58
104.37	1192.32
127.56	1150.21
120.54	989.69
83.01	772.09
28.38	563.35
-26.25	399.78
-67.44	284.42
-89.11	203.25
-92.16	140.38
-79.96	87.59
-57.07	38.76
-29.91	-7.93
-6.71	-47.3
5.8	-68.36
7.93	-67.14
3.66	-51.27
-0.31	-36.62
-1.22	-33.57
0.61	-41.81
3.36	-53.41
4.88	-61.34
5.8	-63.17
6.1	-60.12
5.8	-53.1
5.49	-45.47
5.19	-40.89
5.8	-42.11
7.93	-48.52
11.29	-55.85
14.04	-60.12
15.26	-58.9
14.34	-52.19
13.12	-42.42
14.04	-32.04
18.01	-24.41
23.19	-21.67
26.25	-23.19
26.86	-25.63
25.94	-25.63
27.47	-22.28
32.04	-16.78
38.45	-10.68
43.95	-6.1
46.08	-2.75
45.17	-0.92
42.42	0
39.67	1.83
38.15	5.8
39.06	13.43
43.03	22.58
48.83	29.6
54.32	32.65
57.37	35.1
58.59	42.11
59.51	58.59
61.95	82.09
66.22	106.2
70.8	123.9
74.16	134.58
75.68	141.91
76.9	152.59
79.65	169.98
83.62	192.87
88.81	216.67
92.77	234.99
94.6	243.84
93.69	242
89.72	231.93
83.31	219.42
75.68	207.82
68.66	197.14
64.09	185.24
61.65	171.2
59.2	155.64
54.93	140.69
47.91	126.04
38.76	108.03
29.91	85.45
23.8	61.04
20.45	41.2
19.23	30.52
18.92	27.16
18.92	24.41
18.62	18.31
16.17	8.85
11.29	0.92
3.97	-1.83
-2.44	-2.75
-6.41	-6.71
-7.63	-15.87
-8.54	-26.55
-10.07	-31.43
-12.21	-25.63
-13.43	-12.82
-12.51	-3.97
-10.68	-8.85
-9.16	-28.69
-10.07	-51.27
-12.21	-59.2
-14.34	-42.11
-15.26	-7.93
-14.34	20.75
-12.51	23.8
-10.68	-2.75
-9.16	-40.28
-8.85	-62.56
-10.99	-57.98
-14.34	-37.54
-17.09	-23.8
-17.09	-30.21
-14.34	-48.22
-10.99	-56.46
-9.16	-43.33
-9.77	-19.84
-10.68	-9.16
-10.99	-25.33
-9.77	-60.73
-7.63	-90.64
-5.49	-93.99
-3.66	-68.36
-2.44	-30.52
-2.44	-1.22
-2.75	2.75
-3.66	-23.19
-3.66	-67.14
-3.05	-105.29
-1.83	-116.88
0	-93.99
1.53	-47.61
2.44	-3.36
2.14	16.48
1.22	4.27
-0.92	-30.21
-3.36	-67.14
-6.71	-88.2
-10.99	-85.14
-14.65	-65.31
-15.87	-45.78
-13.73	-40.28
-10.07	-52.8
-7.32	-74.16
-7.32	-89.42
-9.16	-88.5
-11.29	-72.63
-12.51	-51.88
-13.43	-37.23
-14.04	-34.79
-14.95	-42.72
-15.56	-52.49
-15.87	-57.37
-16.17	-54.93
-17.09	-50.05
-17.4	-50.35
-15.56	-60.42
-12.21	-76.6
-9.46	-88.5
-9.46	-86.06
-12.51	-67.75
-15.87	-43.64
-17.09	-28.69
-14.34	-33.26
-9.46	-54.63
-4.88	-77.82
-2.14	-86.67
-1.53	-74.46
-1.53	-50.35
-2.44	-32.65
-4.27	-33.57
-7.02	-49.74
-9.16	-64.39
-9.16	-63.78
-6.71	-46.08
-4.27	-23.5
-3.36	-13.12
-4.58	-21.97
-6.1	-43.64
-6.41	-64.7
-6.41	-74.16
-7.02	-68.05
-9.77	-51.27
-13.43	-34.18
-16.17	-25.33
-16.17	-27.47
-14.65	-36.62
-13.43	-46.08
-12.82	-50.05
-11.29	-47.91
-8.54	-43.33
-5.8	-42.11
-5.49	-47
-8.54	-55.54
-14.04	-61.34
-18.01	-60.12
-18.31	-51.27
-14.95	-38.76
-10.99	-27.77
-8.54	-24.11
-8.85	-30.52
-9.77	-45.17
-10.38	-62.26
-9.16	-72.02
-7.02	-68.05
-5.19	-52.19
-5.19	-34.48
-6.71	-25.33
-7.93	-28.38
-7.32	-37.84
-4.88	-43.95
-2.44	-41.5
0	-32.96
1.83	-24.41
3.05	-22.58
3.05	-28.99
1.53	-37.54
-1.83	-39.37
-5.19	-32.35
-6.71	-21.97
-6.41	-18.92
-6.1	-26.86
-7.93	-39.98
-11.6	-47.3
-14.95	-43.33
-15.26	-32.04
-12.21	-23.19
-7.02	-22.28
-3.97	-28.38
-5.19	-37.54
-10.07	-44.56
-17.09	-46.69
-21.97	-44.56
-23.19	-41.5
-21.06	-42.42
-17.7	-48.52
-15.87	-55.54
-15.87	-57.98
-17.09	-54.02
-18.01	-46.39
-18.62	-39.06
-18.01	-34.18
-17.4	-29.91
-16.48	-25.02
-15.26	-19.53
-14.34	-14.65
-13.73	-10.68
-13.73	-7.63
-14.04	-7.32
-14.34	-11.6
-13.73	-19.23
-12.51	-26.86
-10.38	-28.69
-7.63	-22.58
-4.58	-11.6
-1.53	-0.92
0.61	4.88
1.22	3.97
-0.61	-1.83
-5.19	-10.07
-10.68	-16.17
-14.34	-13.73
-13.43	7.02
-7.93	55.85
-1.22	143.43
1.22	278.32
-1.83	465.7
-4.27	699.46
3.97	947.57
26.86	1152.34
56.15	1249.08(R)
74.77	1202.09
65.31	1031.19
24.41	802.31
-34.48	588.99
-90.94	430.6
-128.78	325.32
-143.13	251.46
-137.02	190.12
-117.49	134.58
-89.42	84.23
-58.9	36.93
-32.35	-6.1
-15.26	-38.76
-9.16	-54.02
-9.77	-52.19
-11.6	-43.64
-10.99	-38.76
-7.63	-41.5
-3.97	-47.61
-1.53	-52.49
-0.31	-54.32
-0.31	-55.24
-0.31	-57.07
-0.31	-58.29
-0.31	-58.29
0	-55.85
1.22	-51.88
3.36	-47
6.1	-41.5
8.85	-36.32
10.68	-33.26
11.6	-33.57
11.29	-36.32
9.77	-40.28
8.24	-43.64
7.63	-45.78
7.93	-46.39
8.85	-45.47
8.85	-43.95
8.54	-42.42
7.93	-41.5
7.93	-41.5
8.85	-41.2
10.07	-39.06
11.29	-33.57
12.21	-25.94
13.43	-18.62
15.26	-13.43
17.7	-10.99
20.14	-9.16
22.58	-5.49
25.02	1.22
28.38	10.99
32.04	22.28
36.32	34.48
40.59	47.3
44.25	60.42
47.3	74.16
50.35	88.5
53.41	104.68
56.76	122.07
60.73	139.77
64.39	155.64
66.83	168.15
67.75	178.22
67.44	187.38
66.53	195.92
64.7	201.42
62.56	200.5
59.51	191.96
55.24	177.31
49.74	160.22
43.03	143.13
36.32	126.95
29.91	110.17
24.41	91.55
20.14	70.19
16.78	47.91
13.73	28.69
10.38	13.73
7.02	3.36
3.97	-5.19
0.92	-13.43
-1.22	-21.06
-2.75	-25.94
-4.27	-28.38
-5.49	-29.91
-7.63	-32.65
-10.07	-37.84
-12.82	-41.81
-15.56	-42.42
-17.4	-39.06
-18.31	-36.01
-18.92	-36.93
-19.53	-41.81
-20.45	-48.22
-21.06	-52.19
-20.75	-51.57
-19.23	-47
-17.4	-39.98
-15.26	-32.65
-13.73	-26.25
-12.82	-21.97
-12.51	-20.75
-12.51	-23.19
-12.82	-28.38
-12.82	-35.1
-12.21	-40.28
-10.68	-42.42
-8.24	-40.28
-5.19	-36.62
-2.44	-35.1
-0.61	-38.76
-0.31	-47.61
-1.53	-57.68
-3.97	-63.78
-6.41	-63.78
-8.24	-57.37
-8.85	-47.61
-8.54	-38.76
-7.93	-33.26
-7.32	-33.57
-7.02	-38.76
-7.02	-45.78
-6.71	-52.19
-6.1	-56.15
-6.1	-58.29
-6.41	-60.12
-7.02	-61.34
-8.54	-62.56
-10.07	-65
-11.6	-68.36
-13.12	-73.24
-14.34	-77.21
-15.26	-78.43
-15.56	-76.29
-15.87	-72.33
-16.17	-69.89
-16.48	-70.19
-17.09	-73.24
-17.7	-78.43
-18.31	-84.53
-18.01	-89.42
-17.7	-90.94
-16.78	-88.2
-16.48	-81.79
-16.48	-74.77
-16.48	-70.5
-16.48	-70.5
-15.87	-72.94
-14.95	-74.16
-13.73	-72.02
-12.51	-68.05
-10.99	-67.75
-9.77	-75.38
-9.46	-89.11
-10.07	-102.23
-12.21	-107.12
-14.65	-100.71
-16.17	-87.89
-16.78	-76.6
-15.87	-72.33
-14.34	-75.68
-13.12	-83.92
-13.12	-93.08
-14.04	-100.4
-14.95	-104.37
-15.87	-104.98
-16.17	-102.54
-16.17	-99.18
-16.17	-95.52
-16.48	-91.25
-18.01	-86.36
-19.84	-82.09
-21.97	-81.79
-23.5	-87.59
-24.11	-96.74
-23.5	-105.59
-21.97	-109.86
-21.06	-108.34
-20.75	-103.76
-21.97	-98.57
-23.19	-94.91
-24.11	-92.47
-24.11	-90.03
-23.8	-87.28
-23.5	-84.23
-22.89	-82.4
-21.36	-82.7
-19.53	-84.84
-18.31	-87.89
-17.4	-88.5
-17.09	-85.45
-16.17	-80.26
-14.65	-76.6
-12.82	-78.43
-11.29	-84.23
-11.29	-89.42
-12.51	-88.81
-14.34	-82.7
-16.48	-75.99
-18.92	-73.85
-20.75	-77.82
-21.06	-85.75
-20.75	-93.38
-19.84	-97.96
-19.23	-96.44
-19.53	-88.81
-20.14	-77.51
-20.45	-67.75
-20.45	-65.31
-19.23	-71.41
-18.31	-83.31
-17.7	-95.83
-18.01	-104.37
-19.23	-106.81
-20.14	-104.98
-20.45	-99.18
-19.84	-92.16
-19.53	-86.98
-21.06	-85.45
-23.5	-87.59
-25.94	-90.03
-26.55	-88.5
-25.63	-81.18
-24.11	-72.02
-22.89	-67.44
-23.19	-71.72
-23.5	-83.62
-22.89	-95.52
-21.36	-101.01
-19.53	-97.35
-18.62	-88.2
-18.01	-78.13
-17.09	-72.02
-15.26	-70.8
-12.51	-72.33
-10.38	-74.46
-9.46	-75.07
-9.77	-74.77
-9.46	-75.07
-8.24	-76.6
-6.41	-78.13
-6.1	-77.21
-7.93	-72.33
-11.29	-65
-13.73	-59.51
-14.04	-59.81
-12.21	-67.14
-10.07	-79.35
-9.46	-92.16
-10.68	-99.79
-12.51	-98.57
-14.65	-89.11
-16.48	-74.77
-17.7	-63.78
-18.62	-60.12
-19.53	-63.78
-20.14	-68.66
-20.45	-69.58
-20.14	-65.61
-19.53	-61.95
-18.62	-64.39
-18.01	-73.55
-18.01	-83.92
-18.31	-89.11
-18.62	-86.36
-18.62	-78.74
-18.92	-71.72
-20.14	-70.5
-22.28	-74.77
-23.5	-79.04
-21.36	-75.68
-14.34	-54.93
-4.58	-6.71
3.66	79.04
5.49	213.32
2.75	403.44
3.66	641.17
17.7	891.42
46.08	1092.22
78.43	1181.03(R)
96.74	1130.98
87.59	969.54
52.19	761.41
3.66	568.54
-43.03	416.87
-77.51	298.77
-95.83	198.67
-98.27	110.78
-85.75	39.98
-61.95	-10.68
-33.87	-46.39
-11.29	-75.38
-0.31	-97.96
-0.31	-110.78
-6.1	-113.53
-11.29	-109.86
-12.82	-106.51
-11.9	-105.29
-10.68	-105.59
-10.38	-105.9
-10.99	-107.73
-11.6	-114.75
-11.6	-126.04
-11.6	-137.94
-10.99	-145.87
-9.46	-147.4
-7.63	-141.91
-5.8	-131.84
-4.27	-119.93
-3.66	-109.25
-3.97	-102.54
-3.97	-100.71
-3.36	-102.54
-2.14	-105.59
-0.31	-108.64
2.14	-110.78
5.19	-110.78
8.24	-106.2
11.29	-95.21
14.34	-80.57
16.78	-68.05
19.23	-62.56
21.06	-64.39
21.97	-69.58
21.97	-73.55
21.36	-75.99
21.36	-76.29
22.89	-73.55
25.63	-67.14
29.3	-57.07
32.96	-45.17
36.01	-33.87
38.76	-23.5
41.2	-11.29
43.95	4.88
47.3	24.41
50.96	44.56
54.93	61.95
58.59	75.68
61.65	87.28
63.48	99.18
65	113.53
66.53	131.23
68.05	150.15
68.66	166.63
67.75	177.61
64.39	180.97
60.12	177.31
55.54	167.24
51.57	151.98
47.61	132.75
42.72	112
36.93	92.77
30.52	77.82
24.72	66.53
19.53	55.54
15.26	43.03
10.99	28.38
6.71	14.65
2.44	3.36
-1.53	-5.49
-4.58	-12.51
-6.71	-18.01
-7.32	-21.06
-7.32	-20.75
-7.02	-17.7
-6.71	-14.04
-7.32	-12.51
-8.85	-14.04
-11.29	-17.4
-14.04	-20.75
-15.56	-22.89
-15.56	-24.72
-14.34	-28.69
-13.12	-36.01
-12.82	-45.47
-13.43	-53.41
-14.95	-58.29
-16.48	-59.81
-17.7	-60.73
-18.01	-61.65
-17.4	-61.95
-15.87	-60.73
-14.65	-57.37
-14.65	-54.32
-15.26	-54.02
-15.87	-55.85
-14.95	-57.07
-11.6	-55.24
-6.41	-50.35
-0.92	-43.95
4.58	-36.01
9.46	-23.5
16.17	0.61
27.77	41.5
45.78	100.71
69.58	175.78
94.6	265.2
114.14	370.48
120.54	496.52
109.86	647.89
81.18	821.53
37.23	1005.86
-17.7	1184.39
-79.04	1341.25
-145.57	1469.12
-218.81	1570.74
-298.77	1654.05
-381.16	1727.91
-452.58	1797.18
-496.83	1866.76
-501.4	1943.05
-468.75	2032.47
-415.65	2134.4
-363.16	2227.78
-322.88	2271.12(R)
-294.49	2212.52
-269.47	2015.38
-242	1684.27
-212.71	1274.11
-183.41	866.7
-152.28	522.16
-113.53	253.91
-65.31	35.1
-14.95	-162.96
24.72	-338.75
44.25	-462.95
44.86	-515.14
37.23	-511.47
32.96	-494.38
36.62	-498.35
45.17	-528.56
52.49	-565.49
55.24	-588.68
54.93	-593.87
54.32	-590.52
54.93	-591.13
57.98	-600.89
62.56	-616.15
67.75	-630.49
72.94	-637.82
77.21	-639.04
81.18	-639.34
85.14	-645.75
89.42	-659.79
94.3	-675.66
99.18	-687.56
103.76	-694.27
108.34	-700.68
113.53	-712.28
119.93	-730.59
126.65	-753.48
133.06	-777.28
138.55	-801.7
144.35	-825.81
151.06	-848.69
159.61	-867.31
169.07	-880.13
178.83	-888.98
188.29	-898.13
198.36	-910.95
209.35	-927.43
221.86	-943.3
234.07	-951.54
245.36	-949.71
254.21	-938.72
260.31	-922.55
263.98	-903.93
264.28	-882.26
261.54	-854.49
255.74	-818.48
248.41	-773.93
240.17	-724.79
230.71	-673.22
219.12	-621.03
205.38	-566.1
189.82	-505.37
172.73	-437.62
154.42	-364.99
135.5	-294.8
115.97	-234.38
96.74	-185.85
77.82	-146.79
59.51	-111.69
41.5	-79.35
25.94	-50.35
13.73	-28.08
5.49	-12.51
0.31	-2.44
-3.66	3.97
-7.02	7.32
-9.77	8.24
-12.82	7.63
-16.48	5.49
-21.67	-1.53
-26.86	-14.65
-31.43	-30.82
-33.87	-42.42
-33.87	-43.33
-32.65	-35.71
-31.43	-28.08
-31.74	-28.38
-33.87	-37.54
-37.23	-48.52
-39.37	-53.41
-38.45	-47.91
-35.1	-36.62
-30.52	-29.6
-26.86	-35.71
-25.63	-54.32
-26.86	-73.55
-28.69	-79.04
-29.91	-65.92
-29.6	-45.47
-27.47	-34.18
-24.11	-39.98
-21.06	-55.54
-20.45	-66.53
-21.67	-65
-23.5	-55.24
-23.8	-47.3
-21.97	-43.95
-18.31	-40.28
-14.65	-31.13
-12.51	-19.84
-12.82	-15.87
-15.87	-24.41
-21.36	-39.06
-26.25	-44.86
-26.55	-34.18
-21.67	-13.43
-14.04	3.05
-8.85	3.66
-10.07	-10.99
-16.17	-30.52
-23.19	-43.64
-27.16	-45.78
-27.47	-38.15
-27.16	-25.94
-28.08	-14.95
-30.21	-10.99
-31.13	-14.95
-29.6	-24.41
-26.86	-34.18
-25.63	-40.89
-26.86	-44.56
-29.6	-43.33
-31.74	-35.71
-31.74	-20.75
-29.3	-5.19
-26.25	0.92
-24.72	-8.24
-25.33	-27.77
-25.94	-46.08
-25.02	-53.41
-23.19	-50.05
-21.67	-40.89
-22.28	-30.52
-25.63	-20.45
-28.69	-12.82
-29.3	-12.82
-27.16	-24.41
-23.5	-41.81
-20.45	-53.41
-18.92	-48.22
-18.92	-27.47
-19.84	-6.1
-20.75	0.31
-20.45	-11.9
-18.31	-30.82
-14.34	-38.76
-10.68	-28.38
-8.85	-9.46
-10.07	2.14
-14.34	-2.44
-18.92	-18.62
-21.06	-32.35
-20.14	-36.62
-17.09	-35.1
-14.65	-32.96
-15.56	-29.91
-19.84	-21.97
-24.41	-8.54
-25.94	2.44
-23.5	-1.53
-18.62	-24.41
-15.26	-52.49
-15.56	-64.09
-18.31	-47
-21.36	-11.29
-23.19	16.78
-24.11	13.43
-24.41	-25.02
-24.41	-74.46
-24.11	-97.05
-23.19	-70.19
-21.06	-7.63
-18.01	47.91
-14.95	54.93
-13.12	9.16
-13.12	-52.19
-14.65	-78.43
-16.48	-49.74
-17.09	4.58
-17.09	35.4
-17.09	18.31
-17.09	-27.16
-16.48	-57.37
-14.65	-44.25
-12.82	3.36
-12.82	46.39
-14.65	52.19
-16.48	19.84
-15.87	-25.94
-13.12	-54.32
-10.07	-47
-8.85	-10.99
-10.07	28.69
-13.12	47.3
-15.26	33.87
-15.26	-2.75
-13.73	-39.37
-11.6	-53.1
-10.68	-37.23
-10.99	-6.41
-13.43	16.17
-17.4	15.26
-20.75	-10.07
-21.97	-42.11
-20.14	-56.76
-15.87	-39.98
-11.9	0
-10.07	37.23
-10.38	43.33
-11.29	9.77
-11.6	-42.11
-11.9	-73.85
-12.51	-61.65
-13.43	-19.23
-14.34	17.7
-13.73	22.58
-12.51	-43.95
-14.04	-25.02
-14.65	7.02
-13.12	29.3
-10.68	26.25
-8.24	-2.44
-7.93	-39.37
-9.46	-58.59
-10.99	-44.25
-9.77	-4.27
-5.19	34.48
-0.31	45.78
1.53	25.63
-2.14	-7.32
-8.85	-30.52
-14.95	-33.87
-17.09	-24.41
-15.87	-13.73
-13.43	-8.24
-12.82	-6.1
-14.04	-4.58
-15.56	-3.97
-16.17	-5.19
-15.87	-6.71
-14.95	-6.41
-14.34	-3.66
-14.34	-1.22
-14.95	-2.44
-16.48	-7.63
-18.01	-13.73
-19.23	-16.78
-19.23	-14.95
-18.31	-9.77
-16.48	-3.66
-14.65	1.83
-13.12	5.8
-11.9	7.93
-11.29	7.02
-11.29	2.75
-11.9	-3.66
-12.82	-9.46
-13.43	-12.21
-12.82	-11.6
-11.6	-9.46
-10.07	-7.93
-8.54	-8.85
-7.63	-10.38
-7.63	-10.68
-8.24	-7.93
-8.54	-3.05
-8.54	1.83
-7.63	4.88
-6.41	4.88
-5.19	3.36
-4.58	1.53
-4.88	0.92
-6.1	0.61
-7.63	0.31
-9.46	-0.61
-10.68	-1.53
-10.99	-2.14
-11.29	-1.22
-11.29	0
-11.29	1.53
-11.6	3.05
-11.29	4.27
-10.68	5.8
-10.07	8.24
-9.16	11.29
-8.54	13.43
-8.54	14.04
-9.16	12.51
-10.07	10.07
-10.99	7.63
-10.99	6.41
-10.99	6.1
-10.68	5.8
-10.68	3.66
-10.38	-0.61
-9.77	-5.49
-9.16	-7.32
-8.85	-3.05
-9.16	6.41
-9.16	18.62
-8.85	27.77
-8.54	30.82
-9.16	26.55
-9.16	20.14
-6.71	20.75
-1.22	42.11
6.1	97.66
10.38	200.5
8.54	359.19
4.58	574.65
7.32	827.33
24.41	1070.25
53.1	1237.49
79.04	1273.19(R)
84.53	1166.38
60.42	961.3
12.82	731.2
-40.59	536.8
-85.14	397.64
-111.69	302.12
-119.32	229.19
-110.78	164.49
-89.42	104.37
-59.81	48.22
-30.21	-3.05
-8.85	-44.86
0.61	-70.19
0.31	-77.51
-3.66	-73.85
-6.41	-70.19
-5.8	-71.72
-4.27	-76.6
-3.36	-79.96
-3.66	-79.04
-4.58	-76.29
-4.88	-74.16
-4.27	-74.77
-3.05	-78.74
-1.83	-85.75
-0.92	-94.6
0	-103.45
0.92	-108.64
2.14	-108.34
3.36	-102.54
4.58	-93.08
5.8	-83.62
7.02	-76.29
8.24	-72.02
10.07	-71.11
11.9	-72.94
13.43	-75.99
14.34	-78.74
14.65	-80.57
14.04	-79.65
13.43	-76.9
13.12	-72.33
13.73	-67.44
15.26	-63.48
18.01	-61.04
20.45	-60.12
21.97	-59.81
22.89	-56.15
23.19	-46.69
24.72	-30.82
27.16	-11.29
30.82	5.8
34.18	16.78
36.62	23.5
37.84	31.74
38.76	46.08
40.59	66.22
43.95	86.06
48.52	101.93
53.1	115.05
56.76	130.92
59.81	153.5
62.56	180.66
64.39	205.69
65.61	223.08
65.61	231.32
63.78	232.85
60.12	229.19
55.85	220.64
51.27	206.91
47.61	189.82
44.56	173.03
41.2	157.17
37.23	140.38
32.96	119.63
29.3	97.05
26.55	76.9
24.11	64.39
21.36	59.51
18.01	57.68
14.04	53.1
10.07	43.64
6.1	30.82
2.44	18.01
-0.92	6.41
-3.66	-4.27
-5.8	-14.04
-7.32	-22.58
-7.93	-26.86
-7.93	-25.63
-7.93	-21.36
-7.93	-16.78
-8.54	-14.65
-9.46	-14.95
-10.68	-16.78
-11.6	-18.92
-12.21	-22.28
-12.21	-26.25
-12.21	-28.08
-12.51	-25.94
-12.82	-20.45
-12.51	-15.56
-11.9	-14.95
-11.29	-19.84
-10.38	-28.69
-9.16	-37.54
-8.24	-43.64
-7.32	-45.47
-7.02	-42.11
-6.71	-34.79
-6.1	-26.25
-4.88	-18.92
-3.05	-14.95
-1.22	-14.34
0.31	-16.17
1.22	-19.23
1.83	-21.67
1.83	-20.45
2.14	-13.73
1.83	-3.36
1.83	4.58
2.44	4.27
3.97	-5.19
6.71	-19.53
9.16	-30.82
10.07	-33.87
8.24	-29.91
4.58	-24.72
0.31	-25.63
-3.05	-32.96
-4.27	-43.64
-3.66	-51.88
-1.83	-54.93
-0.61	-54.63
0	-53.71
-0.61	-53.1
-1.53	-52.49
-2.75	-51.57
-4.27	-51.88
-5.49	-54.32
-6.1	-57.98
-7.02	-59.51
-7.32	-57.37
-8.24	-53.1
-8.85	-51.57
-9.46	-57.07
-9.46	-68.05
-9.77	-79.35
-10.38	-84.23
-12.51	-79.65
-14.65	-69.27
-16.78	-60.73
-17.7	-60.12
-17.09	-68.36
-15.56	-82.7
-14.04	-97.35
-13.43	-107.12
-12.82	-109.56
-12.51	-103.76
-11.9	-91.55
-11.6	-78.74
-11.6	-69.89
-11.6	-67.75
-11.29	-70.5
-10.99	-74.77
-10.07	-77.51
-8.85	-78.13
-7.93	-77.51
-7.63	-76.9
-8.54	-75.68
-11.6	-74.46
-15.56	-73.24
-19.53	-72.63
-21.36	-74.16
-21.06	-79.04
-18.92	-86.36
-16.78	-92.47
-16.17	-93.38
-15.87	-87.89
-15.56	-79.65
-14.95	-72.63
-13.73	-70.5
-13.12	-73.24
-13.43	-79.35
-13.73	-88.5
-14.34	-98.27
-14.65	-104.68
-14.95	-102.54
-15.56	-89.42
-16.17	-69.58
-16.48	-52.49
-16.17	-47.3
-15.56	-54.63
-14.65	-68.05
-13.43	-79.04
-12.21	-82.09
-11.6	-77.82
-11.6	-71.11
-11.9	-66.83
-12.51	-65.61
-12.21	-66.53
-10.68	-67.44
-8.54	-67.75
-6.41	-67.14
-5.19	-65.92
-4.27	-64.09
-3.36	-63.78
-1.83	-66.53
-0.92	-72.02
-0.61	-77.21
-1.53	-78.74
-4.27	-75.07
-8.24	-69.27
-11.9	-66.22
-14.65	-68.05
-15.26	-72.63
-14.65	-74.77
-13.73	-72.02
-13.73	-66.22
-14.34	-61.95
-14.65	-60.73
-13.73	-61.34
-12.21	-60.73
-10.99	-58.59
-10.38	-57.68
-9.77	-61.04
-8.54	-66.83
-6.71	-68.66
-5.49	-62.56
-6.1	-51.57
-7.63	-43.33
-9.46	-44.25
-10.07	-53.41
-9.46	-63.17
-8.85	-65.61
-8.54	-59.51
-9.16	-50.35
-9.77	-44.25
-10.07	-43.03
-9.46	-45.17
-8.85	-47.3
-7.93	-47.61
-6.71	-47.91
-4.88	-50.05
-2.44	-53.71
-0.31	-55.85
0.92	-53.71
1.53	-47.61
2.44	-40.89
3.97	-36.62
5.19	-36.32
5.49	-36.93
3.97	-36.93
1.22	-36.62
-1.53	-39.67
-3.05	-46.08
-3.66	-51.88
-3.66	-51.88
-3.97	-44.25
-4.88	-33.26
-5.49	-26.25
-6.1	-28.38
-6.41	-38.15
-7.02	-49.13
-7.93	-54.32
-9.16	-51.57
-9.77	-44.86
-9.77	-40.89
-9.46	-42.72
-8.85	-48.22
-8.54	-51.27
-8.85	-46.08
-10.07	-34.79
-10.99	-24.11
-11.9	-20.75
-12.21	-25.94
-11.29	-32.65
-10.07	-33.26
-8.85	-25.33
-8.54	-14.65
-8.85	-11.9
-9.77	-21.06
-10.07	-38.15
-9.46	-51.88
-8.24	-55.54
-6.71	-50.66
-4.88	-44.25
-3.66	-42.42
-2.14	-43.95
-0.31	-42.42
1.83	-34.79
3.66	-24.11
4.58	-15.56
3.66	-12.21
1.22	-12.21
-2.14	-12.82
-4.58	-12.82
-5.8	-14.95
-4.88	-21.36
-2.75	-31.43
-1.22	-42.42
-0.61	-50.05
-0.92	-52.8
-1.22	-50.66
-1.22	-45.17
-1.53	-37.54
-2.75	-29.3
-3.97	-21.67
-4.88	-16.48
-3.05	-13.43
-1.53	-14.04
-1.22	-16.17
-1.83	-20.14
-3.05	-25.63
-3.97	-29.6
-5.19	-29.91
-6.41	-27.16
-7.32	-25.02
-6.71	-27.16
-5.19	-32.65
-2.75	-37.54
-0.61	-36.93
0.61	-29.6
0.31	-19.53
0	-12.21
-0.31	-10.99
0.31	-14.65
1.53	-18.62
3.05	-20.75
4.27	-22.58
5.8	-27.16
7.32	-33.57
8.85	-36.62
10.07	-31.13
10.38	-15.56
10.38	3.66
9.46	15.56
7.32	14.04
4.27	1.83
1.22	-12.21
-1.53	-21.67
-2.44	-24.11
-1.83	-22.28
-0.31	-19.23
0.61	-16.48
0.92	-13.43
0.61	-11.9
0.31	-13.43
-0.31	-16.78
-0.92	-18.62
-1.22	-16.48
-1.83	-10.99
-2.44	-6.1
-2.44	-5.19
-2.44	-8.24
-2.75	-13.43
-3.05	-17.09
-2.75	-18.01
-2.14	-17.09
-1.22	-14.65
-0.92	-10.99
-1.53	-6.1
-2.75	-1.83
-3.36	1.22
-2.44	2.14
0	1.22
1.83	-0.61
2.75	-3.66
3.05	-6.1
3.66	-6.71
5.19	-3.66
7.02	3.36
8.24	10.38
8.54	13.43
8.54	11.6
8.54	9.46
8.54	11.6
7.63	19.53
5.8	28.99
3.36	35.1
1.22	36.62
0.31	36.01
0.92	36.93
1.83	39.37
2.75	42.11
3.36	42.42
3.66	39.37
3.97	33.57
4.58	24.72
5.19	14.34
5.49	4.58
5.49	-2.44
5.49	-5.19
5.49	-4.58
5.19	-2.14
4.88	-0.61
4.27	0
3.66	-0.31
3.97	0
4.88	1.53
5.8	4.88
5.8	9.16
5.19	12.21
4.27	11.6
3.97	7.32
4.27	2.14
5.19	0.92
5.49	5.19
5.8	12.21
6.1	16.78
6.41	16.17
7.63	11.6
8.85	7.93
10.38	8.24
12.21	11.9
14.65	14.65
16.78	14.34
18.01	12.21
18.01	10.68
16.17	10.68
12.82	10.99
9.16	9.77
5.19	7.02
1.83	4.88
0.31	5.19
1.53	7.32
4.58	9.77
7.93	10.99
9.46	10.68
7.93	10.07
3.97	10.68
0.92	13.12
0.61	18.31
2.75	24.72
5.49	30.21
7.02	32.65
5.8	31.43
3.66	28.99
1.53	27.77
0.61	29.91
1.53	33.26
3.66	35.1
5.49	33.87
6.1	31.43
5.8	32.35
4.88	39.67
4.27	52.19
3.97	64.09
3.66	68.66
3.97	63.78
5.49	54.63
10.38	52.49
18.01	72.33
26.55	126.34
32.04	222.78
32.35	368.04
31.13	564.88
36.62	801.7
56.15	1041.26
87.59	1222.53
118.1	1283.87(R)
128.48	1202.39
106.81	1011.66
57.68	784.61
-1.83	589.9
-53.1	456.24
-85.14	372.31
-96.74	309.45
-91.55	246.58
-73.24	180.97
-46.08	120.54
-17.7	72.63
3.36	41.5
11.9	26.86
9.46	23.5
3.05	25.02
-1.22	25.63
-0.92	24.41
2.44	21.67
7.02	17.4
10.68	11.6
13.43	5.8
13.73	4.27
11.9	9.16
8.85	17.7
6.41	23.5
5.8	21.67
7.32	13.43
9.77	5.49
11.9	4.58
13.43	10.99
15.26	18.62
18.01	21.36
20.75	17.4
23.5	10.68
24.72	8.24
24.72	11.9
24.72	18.62
25.63	23.5
28.38	25.63
32.04	29.3
35.71	37.84
39.06	48.22
41.81	51.88
43.33	44.25
43.33	29.6
41.81	19.23
39.37	22.28
38.45	36.93
39.98	54.63
43.03	68.36
45.78	76.9
47.3	83.92
47.91	92.16
50.05	100.4
54.32	106.2
60.12	108.64
65.92	111.08
69.27	117.8
70.5	132.45
70.8	154.42
71.11	179.44
71.41	202.64
72.63	220.95
74.46	233.15
76.9	241.09
79.65	248.11
81.18	256.65
80.26	265.5
77.21	271.61
72.94	271.3
68.05	263.37
63.78	250.85
59.81	238.34
56.46	227.66
52.49	216.67
47.91	201.42
42.42	181.88
37.23	162.05
33.87	145.87
32.65	134.89
32.35	126.04
31.13	114.44
27.47	97.05
22.89	75.68
18.62	58.29
16.48	52.19
16.17	59.2
15.87	72.33
14.04	79.96
10.38	73.55
7.02	54.32
5.19	32.96
5.8	21.97
7.32	26.25
7.63	41.2
6.41	56.46
4.58	60.73
3.36	50.05
2.75	31.13
2.75	19.23
3.36	26.25
4.27	52.49
5.19	81.79
5.19	90.33
4.58	66.83
3.97	25.02
3.05	-4.88
2.14	-0.31
0.31	36.01
-2.14	75.38
-4.27	85.14
-4.58	57.37
-2.75	13.43
-0.31	-12.51
0.92	0.31
0.61	42.72
-0.92	80.57
-1.53	85.75
-0.61	55.54
2.44	11.6
6.1	-18.01
9.46	-19.84
11.9	-1.22
13.43	20.45
14.95	34.18
16.48	38.76
17.4	35.4
16.78	23.19
14.34	2.75
10.99	-18.62
7.63	-25.02
4.58	-5.8
2.44	32.65
2.14	65.92
3.05	65
4.58	22.28
5.49	-42.11
3.97	-88.5
0.61	-85.75
-3.05	-32.65
-4.88	38.45
-4.27	83.62
-1.83	73.55
0.31	15.56
0.31	-50.96
-1.83	-84.23
-4.58	-68.97
-6.1	-26.25
-7.02	9.16
-8.24	16.17
-9.46	0.92
-9.46	-17.09
-6.71	-26.25
-2.44	-27.77
0.31	-27.47
0.31	-26.25
-2.75	-20.45
-6.41	-10.38
-8.24	-1.83
-7.02	-0.31
-4.88	-5.49
-2.75	-12.82
-0.92	-16.48
0.31	-14.95
1.22	-9.77
1.53	-4.88
0.92	-4.58
0	-10.68
-0.61	-19.23
-1.22	-21.67
-1.53	-12.51
-2.14	1.83
-2.75	10.38
-3.66	7.32
-4.58	-2.14
-6.41	-10.07
-8.24	-12.82
-8.85	-15.56
-7.02	-22.89
-3.36	-28.08
-0.61	-21.67
-0.61	-3.05
-3.36	12.82
-5.49	10.07
-4.88	-11.6
-2.14	-36.01
-0.31	-43.33
-1.83	-27.16
-6.1	-0.92
-9.46	15.26
-9.16	10.99
-5.8	-7.93
-2.14	-24.11
-1.53	-25.33
-3.97	-12.82
-6.71	0
-7.93	0
-8.24	-14.04
-8.54	-28.99
-8.85	-29.91
-7.93	-14.34
-4.88	3.97
-1.53	9.77
-0.31	-0.61
-1.83	-17.09
-4.88	-25.33
-6.1	-18.62
-3.66	-1.83
1.53	13.43
7.32	18.62
10.38	14.34
9.46	4.58
3.97	-5.19
-3.97	-10.07
-10.07	-9.77
-10.99	-9.16
-6.1	-11.9
0.92	-18.31
5.49	-23.8
4.88	-21.97
0.61	-11.29
-3.97	2.14
-5.19	9.46
-3.66	6.41
-1.53	-4.27
-0.61	-16.17
-1.22	-23.5
-2.14	-22.28
-2.14	-14.65
-1.22	-2.75
-0.31	7.63
0.31	10.99
0	5.8
-1.22	-3.05
-3.36	-9.16
-5.8	-11.6
-7.63	-14.34
-7.93	-21.36
-7.63	-33.26
-6.71	-43.95
-6.41	-45.17
-6.1	-35.4
-5.19	-19.23
-3.66	-2.75
-1.22	9.46
0.92	14.95
2.14	14.34
1.83	8.85
0.61	2.14
-0.61	-2.14
-0.92	-1.53
-0.61	3.66
-0.92	9.46
-2.44	12.51
-4.58	11.9
-7.02	9.16
-8.24	6.41
-7.93	4.88
-7.02	3.36
-5.8	1.22
-4.88	-0.92
-3.97	-1.83
-3.05	-0.92
-1.22	-72.33
-2.14	-70.19
-2.44	-62.26
-2.14	-53.71
-1.83	-49.44
-2.14	-50.66
-4.27	-55.24
-7.32	-59.2
-8.54	-56.15
-6.1	-37.54
-0.31	7.93
4.88	91.55
6.41	223.69
6.1	410.46
11.29	644.53
31.13	892.03
66.22	1095.58
104.37	1192.32
127.56	1150.21
120.54	989.69
83.01	772.09
28.38	563.35
-26.25	399.78
-67.44	284.42
-89.11	203.25
-92.16	140.38
-79.96	87.59
-57.07	38.76
-29.91	-7.93
-6.71	-47.3
5.8	-68.36
7.93	-67.14
3.66	-51.27
-0.31	-36.62
-1.22	-33.57
0.61	-41.81
3.36	-53.41
4.88	-61.34
5.8	-63.17
6.1	-60.12
5.8	-53.1
5.49	-45.47
5.19	-40.89
5.8	-42.11
7.93	-48.52
11.29	-55.85
14.04	-60.12
15.26	-58.9
14.34	-52.19
13.12	-42.42
14.04	-32.04
18.01	-24.41
23.19	-21.67
26.25	-23.19
26.86	-25.63
25.94	-25.63
27.47	-22.28
32.04	-16.78
38.45	-10.68
43.95	-6.1
46.08	-2.75
45.17	-0.92
42.42	0
39.67	1.83
38.15	5.8
39.06	13.43
43.03	22.58
48.83	29.6
54.32	32.65
57.37	35.1
58.59	42.11
59.51	58.59
61.95	82.09
66.22	106.2
70.8	123.9
74.16	134.58
75.68	141.91
76.9	152.59
79.65	169.98
83.62	192.87
88.81	216.67
92.77	234.99
94.6	243.84
93.69	242
89.72	231.93
83.31	219.42
75.68	207.82
68.66	197.14
64.09	185.24
61.65	171.2
59.2	155.64
54.93	140.69
47.91	126.04
38.76	108.03
29.91	85.45
23.8	61.04
20.45	41.2
19.23	30.52
18.92	27.16
18.92	24.41
18.62	18.31
16.17	8.85
11.29	0.92
3.97	-1.83
-2.44	-2.75
-6.41	-6.71
-7.63	-15.87
-8.54	-26.55
-10.07	-31.43
-12.21	-25.63
-13.43	-12.82
-12.51	-3.97
-10.68	-8.85
-9.16	-28.69
-10.07	-51.27
-12.21	-59.2
-14.34	-42.11
-15.26	-7.93
-14.34	20.75
-12.51	23.8
-10.68	-2.75
-9.16	-40.28
-8.85	-62.56
-10.99	-57.98
-14.34	-37.54
-17.09	-23.8
-17.09	-30.21
-14.34	-48.22
-10.99	-56.46
-9.16	-43.33
-9.77	-19.84
-10.68	-9.16
-10.99	-25.33
-9.77	-60.73
-7.63	-90.64
-5.49	-93.99
-3.66	-68.36
-2.44	-30.52
-2.44	-1.22
-2.75	2.75
-3.66	-23.19
-3.66	-67.14
-3.05	-105.29
-1.83	-116.88
0	-93.99
1.53	-47.61
2.44	-3.36
2.14	16.48
1.22	4.27
-0.92	-30.21
-3.36	-67.14
-6.71	-88.2
-10.99	-85.14
-14.65	-65.31
-15.87	-45.78
-13.73	-40.28
-10.07	-52.8
-7.32	-74.16
-7.32	-89.42
-9.16	-88.5
-11.29	-72.63
-12.51	-51.88
-13.43	-37.23
-14.04	-34.79
-14.95	-42.72
-15.56	-52.49
-15.87	-57.37
-16.17	-54.93
-17.09	-50.05
-17.4	-50.35
-15.56	-60.42
-12.21	-76.6
-9.46	-88.5
-9.46	-86.06
-12.51	-67.75
-15.87	-43.64
-17.09	-28.69
-14.34	-33.26
-9.46	-54.63
-4.88	-77.82
-2.14	-86.67
-1.53	-74.46
-1.53	-50.35
-2.44	-32.65
-4.27	-33.57
-7.02	-49.74
-9.16	-64.39
-9.16	-63.78
-6.71	-46.08
-4.27	-23.5
-3.36	-13.12
-4.58	-21.97
-6.1	-43.64
-6.41	-64.7
-6.41	-74.16
-7.02	-68.05
-9.77	-51.27
-13.43	-34.18
-16.17	-25.33
-16.17	-27.47
-14.65	-36.62
-13.43	-46.08
-12.82	-50.05
-11.29	-47.91
-8.54	-43.33
-5.8	-42.11
-5.49	-47
-8.54	-55.54
-14.04	-61.34
-18.01	-60.12
-18.31	-51.27
-14.95	-38.76
-10.99	-27.77
-8.54	-24.11
-8.85	-30.52
-9.77	-45.17
-10.38	-62.26
-9.16	-72.02
-7.02	-68.05
-5.19	-52.19
-5.19	-34.48
-6.71	-25.33
-7.93	-28.38
-7.32	-37.84
-4.88	-43.95
-2.44	-41.5
0	-32.96
1.83	-24.41
3.05	-22.58
3.05	-28.99
1.53	-37.54
-1.83	-39.37
-5.19	-32.35
-6.71	-21.97
-6.41	-18.92
-6.1	-26.86
-7.93	-39.98
-11.6	-47.3
-14.95	-43.33
-15.26	-32.04
-12.21	-23.19
-7.02	-22.28
-3.97	-28.38
-5.19	-37.54
-10.07	-44.56
-17.09	-46.69
-21.97	-44.56
-23.19	-41.5
-21.06	-42.42
-17.7	-48.52
-15.87	-55.54
-15.87	-57.98
-17.09	-54.02
-18.01	-46.39
-18.62	-39.06
-18.01	-34.18
-17.4	-29.91
-16.48	-25.02
-15.26	-19.53
-14.34	-14.65
-13.73	-10.68
-13.73	-7.63
-14.04	-7.32
-14.34	-11.6
-13.73	-19.23
-12.51	-26.86
-10.38	-28.69
-7.63	-22.58
-4.58	-11.6
-1.53	-0.92
0.61	4.88
1.22	3.97
-0.61	-1.83
-5.19	-10.07
-10.68	-16.17
-14.34	-13.73
-13.43	7.02
-7.93	55.85
-1.22	143.43
1.22	278.32
-1.83	465.7
-4.27	699.46
3.97	947.57
26.86	1152.34
56.15	1249.08(R)
74.77	1202.09
65.31	1031.19
24.41	802.31
-34.48	588.99
-90.94	430.6
-128.78	325.32
-143.13	251.46
-137.02	190.12
-117.49	134.58
-89.42	84.23
-58.9	36.93
-32.35	-6.1
-15.26	-38.76
-9.16	-54.02
-9.77	-52.19
-11.6	-43.64
-10.99	-38.76
-7.63	-41.5
-3.97	-47.61
-1.53	-52.49
-0.31	-54.32
-0.31	-55.24
-0.31	-57.07
-0.31	-58.29
-0.31	-58.29
0	-55.85
1.22	-51.88
3.36	-47
6.1	-41.5
8.85	-36.32
10.68	-33.26
11.6	-33.57
11.29	-36.32
9.77	-40.28
8.24	-43.64
7.63	-45.78
7.93	-46.39
8.85	-45.47
8.85	-43.95
8.54	-42.42
7.93	-41.5
7.93	-41.5
8.85	-41.2
10.07	-39.06
11.29	-33.57
12.21	-25.94
13.43	-18.62
15.26	-13.43
17.7	-10.99
20.14	-9.16
22.58	-5.49
25.02	1.22
28.38	10.99
32.04	22.28
36.32	34.48
40.59	47.3
44.25	60.42
47.3	74.16
50.35	88.5
53.41	104.68
56.76	122.07
60.73	139.77
64.39	155.64
66.83	168.15
67.75	178.22
67.44	187.38
66.53	195.92
64.7	201.42
62.56	200.5
59.51	191.96
55.24	177.31
49.74	160.22
43.03	143.13
36.32	126.95
29.91	110.17
24.41	91.55
20.14	70.19
16.78	47.91
13.73	28.69
10.38	13.73
7.02	3.36
3.97	-5.19
0.92	-13.43
-1.22	-21.06
-2.75	-25.94
-4.27	-28.38
-5.49	-29.91
-7.63	-32.65
-10.07	-37.84
-12.82	-41.81
-15.56	-42.42
-17.4	-39.06
-18.31	-36.01
-18.92	-36.93
-19.53	-41.81
-20.45	-48.22
-21.06	-52.19
-20.75	-51.57
-19.23	-47
-17.4	-39.98
-15.26	-32.65
-13.73	-26.25
-12.82	-21.97
-12.51	-20.75
-12.51	-23.19
-12.82	-28.38
-12.82	-35.1
-12.21	-40.28
-10.68	-42.42
-8.24	-40.28
-5.19	-36.62
-2.44	-35.1
-0.61	-38.76
-0.31	-47.61
-1.53	-57.68
-3.97	-63.78
-6.41	-63.78
-8.24	-57.37
-8.85	-47.61
-8.54	-38.76
-7.93	-33.26
-7.32	-33.57
-7.02	-38.76
-7.02	-45.78
-6.71	-52.19
-6.1	-56.15
-6.1	-58.29
-6.41	-60.12
-7.02	-61.34
-8.54	-62.56
-10.07	-65
-11.6	-68.36
-13.12	-73.24
-14.34	-77.21
-15.26	-78.43
-15.56	-76.29
-15.87	-72.33
-16.17	-69.89
-16.48	-70.19
-17.09	-73.24
-17.7	-78.43
-18.31	-84.53
-18.01	-89.42
-17.7	-90.94
-16.78	-88.2
-16.48	-81.79
-16.48	-74.77
-16.48	-70.5
-16.48	-70.5
-15.87	-72.94
-14.95	-74.16
-13.73	-72.02
-12.51	-68.05
-10.99	-67.75
-9.77	-75.38
-9.46	-89.11
-10.07	-102.23
-12.21	-107.12
-14.65	-100.71
-16.17	-87.89
-16.78	-76.6
-15.87	-72.33
-14.34	-75.68
-13.12	-83.92
-13.12	-93.08
-14.04	-100.4
-14.95	-104.37
-15.87	-104.98
-16.17	-102.54
-16.17	-99.18
-16.17	-95.52
-16.48	-91.25
-18.01	-86.36
-19.84	-82.09
-21.97	-81.79
-23.5	-87.59
-24.11	-96.74
-23.5	-105.59
-21.97	-109.86
-21.06	-108.34
-20.75	-103.76
-21.97	-98.57
-23.19	-94.91
-24.11	-92.47
-24.11	-90.03
-23.8	-87.28
-23.5	-84.23
-22.89	-82.4
-21.36	-82.7
-19.53	-84.84
-18.31	-87.89
-17.4	-88.5
-17.09	-85.45
-16.17	-80.26
-14.65	-76.6
-12.82	-78.43
-11.29	-84.23
-11.29	-89.42
-12.51	-88.81
-14.34	-82.7
-16.48	-75.99
-18.92	-73.85
-20.75	-77.82
-21.06	-85.75
-20.75	-93.38
-19.84	-97.96
-19.23	-96.44
-19.53	-88.81
-20.14	-77.51
-20.45	-67.75
-20.45	-65.31
-19.23	-71.41
-18.31	-83.31
-17.7	-95.83
-18.01	-104.37
-19.23	-106.81
-20.14	-104.98
-20.45	-99.18
-19.84	-92.16
-19.53	-86.98
-21.06	-85.45
-23.5	-87.59
-25.94	-90.03
-26.55	-88.5
-25.63	-81.18
-24.11	-72.02
-22.89	-67.44
-23.19	-71.72
-23.5	-83.62
-22.89	-95.52
-21.36	-101.01
-19.53	-97.35
-18.62	-88.2
-18.01	-78.13
-17.09	-72.02
-15.26	-70.8
-12.51	-72.33
-10.38	-74.46
-9.46	-75.07
-9.77	-74.77
-9.46	-75.07
-8.24	-76.6
-6.41	-78.13
-6.1	-77.21
-7.93	-72.33
-11.29	-65
-13.73	-59.51
-14.04	-59.81
-12.21	-67.14
-10.07	-79.35
-9.46	-92.16
-10.68	-99.79
-12.51	-98.57
-14.65	-89.11
-16.48	-74.77
-17.7	-63.78
-18.62	-60.12
-19.53	-63.78
-20.14	-68.66
-20.45	-69.58
-20.14	-65.61
-19.53	-61.95
-18.62	-64.39
-18.01	-73.55
-18.01	-83.92
-18.31	-89.11
-18.62	-86.36
-18.62	-78.74
-18.92	-71.72
-20.14	-70.5
-22.28	-74.77
-23.5	-79.04
-21.36	-75.68
-14.34	-54.93
-4.58	-6.71
3.66	79.04
5.49	213.32
2.75	403.44
3.66	641.17
17.7	891.42
46.08	1092.22
78.43	1181.03(R)
96.74	1130.98
87.59	969.54
52.19	761.41
3.66	568.54
-43.03	416.87
-77.51	298.77
-95.83	198.67
-98.27	110.78
-85.75	39.98
-61.95	-10.68
-33.87	-46.39
-11.29	-75.38
-0.31	-97.96
-0.31	-110.78
-6.1	-113.53
-11.29	-109.86
-12.82	-106.51
-11.9	-105.29
-10.68	-105.59
-10.38	-105.9
-10.99	-107.73
-11.6	-114.75
-11.6	-126.04
-11.6	-137.94
-10.99	-145.87
-9.46	-147.4
-7.63	-141.91
-5.8	-131.84
-4.27	-119.93
-3.66	-109.25
-3.97	-102.54
-3.97	-100.71
-3.36	-102.54
-2.14	-105.59
-0.31	-108.64
2.14	-110.78
5.19	-110.78
8.24	-106.2
11.29	-95.21
14.34	-80.57
16.78	-68.05
19.23	-62.56
21.06	-64.39
21.97	-69.58
21.97	-73.55
21.36	-75.99
21.36	-76.29
22.89	-73.55
25.63	-67.14
29.3	-57.07
32.96	-45.17
36.01	-33.87
38.76	-23.5
41.2	-11.29
43.95	4.88
47.3	24.41
50.96	44.56
54.93	61.95
58.59	75.68
61.65	87.28
63.48	99.18
65	113.53
66.53	131.23
68.05	150.15
68.66	166.63
67.75	177.61
64.39	180.97
60.12	177.31
55.54	167.24
51.57	151.98
47.61	132.75
42.72	112
36.93	92.77
30.52	77.82
24.72	66.53
19.53	55.54
15.26	43.03
10.99	28.38
6.71	14.65
2.44	3.36
-1.53	-5.49
-4.58	-12.51
-6.71	-18.01
-7.32	-21.06
-7.32	-20.75
-7.02	-17.7
-6.71	-14.04
-7.32	-12.51
-8.85	-14.04
-11.29	-17.4
-14.04	-20.75
-15.56	-22.89
-15.56	-24.72
-14.34	-28.69
-13.12	-36.01
-12.82	-45.47
-13.43	-53.41
-14.95	-58.29
-16.48	-59.81
-17.7	-60.73
-18.01	-61.65
-17.4	-61.95
-15.87	-60.73
-14.65	-57.37
-14.65	-54.32
-15.26	-54.02
-15.87	-55.85
-14.95	-57.07
-11.6	-55.24
-6.41	-50.35
-0.92	-43.95
4.58	-36.01
9.46	-23.5
16.17	0.61
27.77	41.5
45.78	100.71
69.58	175.78
94.6	265.2
114.14	370.48
120.54	496.52
109.86	647.89
81.18	821.53
37.23	1005.86
-17.7	1184.39
-79.04	1341.25
-145.57	1469.12
-218.81	1570.74
-298.77	1654.05
-381.16	1727.91
-452.58	1797.18
-496.83	1866.76
-501.4	1943.05
-468.75	2032.47
-415.65	2134.4
-363.16	2227.78
