-94.3	-87.89
-90.64	-83.92
-83.92	-84.53
-79.65	-89.42
-83.92	-96.44
-98.27	-102.84
-109.56	-95.52
-82.7	-86.06
-52.49	-78.13
-33.87	-75.68
-34.48	-79.35
-48.83	-87.28
-65.61	-94.91
-75.38	-98.88
-76.6	-99.49
-74.16	-97.35
-71.72	-94.6
-69.58	-91.55
-65.31	-87.28
-57.68	-81.48
-50.66	-76.29
-49.74	-75.68
-57.07	-82.09
-69.58	-93.08
-79.04	-101.93
-79.96	-101.32
-73.85	-90.03
-65.92	-74.46
-61.65	-63.78
-62.56	-63.17
-66.22	-70.8
-68.36	-79.65
-68.05	-83.92
-66.83	-81.48
-65.92	-72.63
-67.14	-61.34
-71.72	-51.57
-78.13	-46.39
-81.48	-45.78
-76.29	-45.78
-61.95	-40.89
-43.03	-27.16
-28.99	-8.24
-25.33	10.99
-30.21	25.63
-37.84	34.48
-45.17	38.76
-50.96	41.2
-56.15	44.25
-58.59	49.13
-56.76	55.85
-50.66	63.48
-44.56	70.8
-42.11	76.9
-43.95	83.01
-46.69	89.72
-47	94.91
-43.03	95.83
-35.1	90.64
-26.25	80.87
-18.62	69.89
-13.12	61.04
-10.07	54.02
-8.85	47.3
-7.63	38.15
-6.41	25.94
-4.58	11.6
-3.36	-3.66
-4.27	-18.01
-7.02	-29.3
-8.85	-35.1
-8.54	-35.4
-6.1	-32.65
-3.05	-30.82
-3.36	-32.96
-7.93	-39.37
-14.65	-47
-19.23	-51.57
-18.31	-50.66
-12.21	-45.47
-4.58	-40.28
0.31	-38.15
0.31	-40.59
-4.88	-46.39
-13.12	-54.02
-21.06	-61.04
-26.86	-66.53
-28.08	-68.97
-25.02	-68.36
-19.53	-64.39
-14.04	-57.98
-10.99	-51.27
-10.68	-45.17
-12.82	-40.28
-17.09	-36.01
-19.53	-38.76
-0.92	-56.46
40.89	-90.64
101.93	-135.19
161.74	-176.09
192.87	-204.77
176.39	-227.66
112.3	-269.17
21.67	-350.95
-64.39	-474.85
-121.15	-616.76
-144.04	-734.86
-148.01	-798.65
-159.61	-802.00(R)
-201.42	-759.58
-272.52	-688.17
-346.07	-602.42
-385.13	-513.92
-368.96	-431.82
-307.62	-366.21
-237.43	-321.35
-191.65	-292.36
-177.92	-271.61
-178.22	-255.74
-164.79	-240.78
-123.9	-218.81
-63.78	-180.97
-5.8	-123.6
30.82	-57.07
39.06	0.31
27.16	33.26
10.07	42.11
-0.31	38.45
-1.22	34.79
2.14	36.62
2.44	42.42
-2.14	47.91
-8.54	52.19
-11.9	57.37
-11.29	63.48
-11.9	69.89
-18.92	74.16
-32.65	75.07
-46.39	72.94
-50.05	69.58
-38.76	66.53
-16.78	63.78
5.19	61.95
16.78	61.65
16.48	63.78
8.54	65.31
0.92	61.95
-3.05	51.27
-3.66	35.71
-3.97	21.06
-3.36	13.73
0.61	15.56
9.46	25.94
20.75	43.33
31.13	70.19
39.06	108.03
46.69	153.81
56.46	200.2
67.44	238.95
74.46	267.03
72.33	288.39
61.95	308.84
47.91	332.03
38.15	357.67
36.62	383.91
42.42	409.24
52.19	432.74
61.95	454.1
71.41	473.33
82.4	493.16
96.13	516.05
110.78	541.38
120.54	566.1
121.15	585.94
113.83	597.53
105.9	601.5
105.29	599.67
115.05	591.43
130.92	576.17
144.96	553.89
151.67	525.82
151.37	494.08
148.01	460.21
145.26	425.11
143.43	389.1
141.6	353.7
138.85	320.74
134.89	290.22
131.23	261.84
128.48	233.46
126.04	204.16
122.68	173.95
117.49	146.48
109.25	124.51
97.35	107.73
82.4	93.69
65	76.29
47	53.71
31.74	30.21
22.28	12.82
19.23	5.8
21.36	6.41
22.89	6.41
17.7	-1.22
4.27	-16.48
-13.73	-33.26
-28.69	-43.33
-34.48	-43.95
-32.04	-38.15
-27.47	-33.57
-25.94	-33.87
-29.3	-38.45
-33.57	-44.86
-35.4	-49.74
-34.79	-51.88
-32.96	-51.88
-32.35	-50.96
-31.43	-48.22
-28.08	-44.25
-22.89	-41.5
-19.23	-42.72
-20.14	-49.74
-25.33	-61.34
-30.82	-72.63
-32.96	-77.51
-31.74	-75.07
-30.21	-68.05
-30.82	-61.95
-31.43	-61.04
-28.99	-65.31
-23.8	-72.02
-20.14	-77.21
-20.14	-78.74
-24.11	-78.13
-27.47	-77.21
-26.86	-77.51
-21.97	-79.04
-14.95	-80.57
-10.38	-82.09
-12.21	-84.23
-21.36	-89.11
-34.79	-97.05
-45.17	-104.06
-45.47	-106.2
-35.4	-101.93
-22.28	-95.21
-15.56	-90.94
-18.01	-91.55
-23.8	-94.91
-27.16	-97.05
-25.33	-96.13
-21.67	-92.77
-20.14	-90.03
-23.19	-90.94
-28.69	-96.44
-33.26	-104.98
-33.57	-112
-27.16	-112.3
-14.95	-105.59
-3.36	-96.74
-0.61	-92.16
-10.07	-95.52
-26.86	-103.45
-41.5	-109.25
-46.69	-109.56
-43.64	-106.81
-37.54	-104.98
-35.1	-105.9
-36.93	-108.34
-38.76	-108.03
-37.54	-104.68
-31.43	-100.4
-24.72	-98.27
-22.89	-100.4
-27.77	-106.2
-36.32	-111.69
-43.33	-112.92
-44.56	-108.34
-38.15	-98.27
-26.25	-86.67
-14.65	-80.26
-6.71	-82.4
-4.58	-90.94
-8.85	-100.4
-18.01	-105.29
-28.08	-103.76
-35.4	-98.27
-36.32	-93.99
-30.52	-92.16
-19.53	-92.16
-10.07	-94.3
-10.38	-97.66
-22.89	-101.93
-43.33	-105.29
-61.34	-105.59
-67.44	-101.32
-58.29	-93.38
-39.67	-84.84
-22.28	-78.13
-12.82	-74.77
-11.29	-75.68
-12.21	-79.35
-11.6	-82.4
-10.68	-83.92
-12.82	-83.62
-18.31	-82.09
-20.75	-80.26
-14.65	-77.82
-1.53	-74.46
9.16	-70.8
7.93	-69.27
-5.8	-71.11
-23.5	-75.38
-35.71	-80.57
-39.06	-83.62
-36.01	-83.01
-32.04	-79.96
-29.91	-75.68
-29.91	-72.02
-31.43	-70.5
-33.26	-70.19
-33.87	-70.19
-29.6	-69.27
-19.23	-68.05
-7.32	-67.14
0	-66.22
-1.53	-65.61
-11.6	-65
-23.8	-65
-31.43	-65.61
-30.52	-66.22
-23.5	-65.61
-14.95	-63.78
-9.77	-61.34
-8.85	-59.2
-11.9	-56.46
-15.56	-53.1
-16.48	-49.13
-12.21	-46.39
-4.58	-46.69
2.44	-50.66
2.44	-57.37
-6.1	-64.09
-18.92	-68.05
-27.77	-67.14
-25.02	-61.95
-12.21	-56.15
2.14	-52.49
9.16	-52.8
5.8	-54.93
-3.97	-57.07
-13.43	-57.37
-19.23	-57.68
-22.58	-59.2
-25.63	-62.26
-26.86	-63.78
-22.58	-61.04
-11.6	-53.41
2.44	-45.17
10.68	-40.59
7.93	-42.72
-3.97	-49.13
-17.09	-56.15
-23.19	-60.12
-19.23	-59.51
-9.16	-55.54
2.14	-49.74
9.46	-43.64
11.6	-38.45
9.16	-35.1
2.14	-35.1
-7.32	-38.76
-15.56	-44.56
-17.09	-48.52
-9.77	-48.52
1.83	-44.86
10.68	-40.89
10.68	-39.98
2.14	-42.11
-7.32	-43.95
-10.99	-43.03
-9.16	-40.28
-6.71	-38.45
-7.32	-38.76
-9.16	-40.89
-7.93	-43.03
-1.83	-43.03
5.49	-40.89
7.32	-38.45
1.53	-37.23
-8.85	-37.84
-18.01	-39.67
-21.36	-40.28
-17.7	-38.15
-7.93	-31.43
4.88	-20.45
18.62	-6.41
30.21	8.54
37.23	22.28
39.98	32.96
38.45	39.06
35.71	39.67
37.23	36.32
45.47	31.43
60.42	28.69
75.68	29.6
82.4	32.65
78.43	33.57
70.19	28.08
65.92	15.56
69.27	-0.61
75.68	-13.73
77.21	-19.23
69.58	-17.09
56.15	-11.29
40.59	-8.85
24.41	-15.26
5.49	-30.21
-14.95	-48.52
-33.26	-62.87
-43.33	-68.36
-42.72	-66.53
-35.1	-61.95
-28.69	-59.2
-29.3	-60.12
-35.4	-62.87
-40.28	-63.78
-36.93	-60.73
-25.63	-55.54
-12.51	-49.74
-3.36	-43.33
1.22	-29.91
10.38	0.61
32.04	54.93
66.83	130
108.64	213.32
157.47	291.44
225.52	356.14
332.95	404.97
493.47	435.18(R)
680.85	429.38
814.51	368.65
801.39	257.26
604.25	124.51
279.85	12.82
-36.01	-43.64
-210.88	-49.13
-212.1	-35.4
-115.66	-31.43
-32.96	-43.64
-25.02	-61.65
-73.55	-72.33
-119.93	-72.02
-126.04	-66.53
-97.96	-62.87
-68.97	-64.09
-62.87	-68.05
-77.51	-72.02
-95.21	-73.85
-100.71	-72.02
-91.25	-66.22
-75.68	-59.81
-65.92	-55.85
-65.61	-55.85
-68.66	-57.07
-64.7	-55.85
-52.8	-51.88
-40.89	-47.91
-40.89	-48.22
-54.93	-53.71
-75.38	-60.73
-90.03	-64.09
-93.99	-62.26
-89.72	-58.59
-82.09	-55.54
-74.77	-54.93
-68.05	-53.41
-62.26	-48.52
-59.51	-41.81
-61.04	-36.62
-63.78	-35.71
-63.78	-38.45
-58.29	-42.72
-49.74	-45.47
-44.56	-46.39
-44.86	-44.56
-48.52	-39.98
-50.96	-35.1
-49.74	-32.35
-47.3	-33.26
-45.78	-36.62
-45.17	-37.84
-44.86	-35.4
-43.64	-30.52
-42.11	-25.94
-42.42	-23.5
-44.86	-20.75
-47.91	-15.26
-50.66	-8.54
-53.71	-3.36
-57.37	-1.83
-59.51	-1.22
-56.46	2.75
-46.69	12.21
-34.79	24.41
-28.38	33.26
-32.35	36.62
-43.64	36.93
-55.24	38.45
-59.51	44.56
-54.93	53.71
-44.86	63.17
-34.18	72.63
-25.63	82.4
-20.75	92.16
-20.75	99.49
-25.02	101.32
-28.69	100.71
-26.55	101.62
-17.09	106.51
-4.27	113.22
1.83	115.36
-3.36	108.64
-15.26	95.83
-21.36	83.31
-12.21	75.99
11.29	74.16
38.45	72.63
56.76	66.83
60.42	54.63
50.66	36.32
34.79	15.87
21.06	-1.53
16.17	-10.07
23.19	-7.32
39.06	3.97
55.85	14.95
64.39	17.4
60.73	8.54
47.91	-7.02
34.79	-19.84
28.38	-23.19
30.21	-17.09
36.62	-7.63
42.11	-1.83
43.95	-2.75
43.33	-7.63
43.95	-12.21
46.69	-14.65
51.57	-13.73
56.76	-11.29
62.56	-7.93
70.5	-3.97
79.65	-0.31
85.45	-0.31
82.4	-6.71
68.97	-17.7
50.35	-28.69
35.1	-34.48
27.47	-34.79
25.63	-32.35
26.25	-31.74
26.25	-34.48
26.55	-39.37
28.38	-42.11
30.21	-41.2
29.6	-37.23
28.08	-29.91
29.6	-19.84
36.32	-11.29
43.95	-8.24
46.39	-12.82
40.89	-21.97
31.13	-29.3
24.11	-28.99
22.28	-23.5
21.67	-18.31
17.09	-19.53
9.77	-25.33
7.93	-29.3
18.01	-27.47
36.01	-22.28
50.66	-19.23
51.57	-21.36
38.76	-26.55
21.67	-30.52
11.29	-31.74
10.68	-31.74
16.78	-33.57
23.19	-36.32
25.33	-37.54
23.19	-37.84
19.23	-37.54
18.62	-38.15
23.8	-39.98
32.96	-43.03
39.67	-47
39.37	-51.57
33.26	-55.54
26.86	-57.07
24.41	-56.46
25.33	-55.24
25.63	-56.15
24.72	-59.2
27.16	-61.34
36.32	-61.65
50.96	-60.12
65.31	-58.59
72.02	-57.68
67.14	-57.68
53.1	-59.2
36.01	-62.56
24.41	-67.44
25.63	-70.19
40.59	-67.14
61.65	-59.2
77.51	-50.96
79.96	-48.52
67.75	-55.54
48.22	-68.97
31.74	-83.92
23.19	-95.21
21.36	-100.1
24.11	-97.96
27.77	-90.94
32.96	-80.26
41.2	-67.14
52.49	-54.32
63.48	-44.86
70.8	-39.67
72.02	-38.45
68.66	-37.54
64.39	-33.57
63.78	-24.72
71.11	-13.12
88.2	-0.92
113.53	10.99
139.16	21.06
154.72	25.02
152.28	16.78
133.97	-5.49
111.69	-36.62
98.27	-65.61
96.74	-82.7
101.62	-85.14
103.15	-79.04
96.44	-73.55
82.4	-74.77
65.92	-82.7
50.66	-93.38
38.76	-102.54
30.21	-108.34
25.94	-112.61
25.02	-118.41
24.11	-126.34
22.58	-134.58
20.14	-138.85
17.7	-137.94
16.17	-133.36
16.17	-128.78
18.31	-126.65
22.28	-125.43
29.91	-122.99
39.37	-118.1
48.83	-112
54.63	-102.54
58.59	-82.7
66.53	-44.56
84.84	15.87
119.63	92.16
173.65	170.9
252.38	240.17
363.77	293.58
516.05	329.28
700.07	338.75(R)
862.12	301.51
914	213.32
790.71	93.99
502.93	-19.84
154.72	-91.86
-107.12	-113.83
-191.96	-108.95
-123.29	-105.9
-3.66	-112.92
70.5	-121.15
69.27	-122.38
26.25	-118.41
-10.07	-117.49
-18.92	-123.6
-9.46	-132.14
2.44	-135.5
10.07	-130.62
15.26	-122.68
20.45	-115.66
25.02	-112
26.86	-112.3
26.86	-116.58
26.86	-123.6
27.77	-129.09
29.3	-128.48
30.52	-120.85
27.77	-112.61
18.31	-110.47
3.66	-117.8
-10.99	-129.39
-20.75	-136.72
-23.19	-133.06
-19.23	-119.32
-10.38	-103.15
1.22	-91.86
14.04	-89.72
24.41	-95.21
26.86	-104.06
18.92	-113.22
4.88	-119.93
-6.71	-122.07
-8.24	-119.02
1.53	-110.47
17.4	-98.57
31.13	-87.89
35.1	-83.62
26.55	-89.11
8.85	-103.45
-10.99	-120.54
-24.41	-131.23
-23.5	-127.26
-7.63	-108.03
15.26	-82.09
33.26	-61.34
39.67	-51.57
35.1	-51.27
25.33	-53.41
18.62	-53.1
16.78	-49.74
15.56	-47
12.82	-45.17
9.77	-39.98
11.29	-27.77
19.53	-7.63
31.74	14.95
40.59	32.65
41.2	40.89
35.4	41.2
29.3	39.06
26.86	39.98
27.16	45.47
26.25	54.32
21.97	64.09
18.62	75.07
24.72	86.98
43.03	97.66
69.27	104.98
93.38	108.34
106.2	108.95
105.9	108.34
100.1	108.03
97.66	105.9
103.45	100.4
115.66	89.72
126.04	73.55
127.87	52.8
121.46	30.21
112.61	9.16
109.86	-4.88
117.19	-9.16
131.23	-5.49
144.04	-0.61
149.54	0
146.18	-6.41
139.16	-16.17
134.58	-24.11
134.58	-28.08
137.63	-28.69
140.38	-28.38
141.91	-27.77
143.43	-26.86
146.18	-24.41
147.71	-23.19
146.48	-24.72
141.6	-28.99
136.11	-32.65
134.58	-31.74
137.02	-25.33
140.69	-18.31
143.43	-14.65
148.62	-15.87
158.08	-20.45
172.73	-23.8
187.07	-23.5
194.09	-20.45
190.43	-17.09
179.75	-15.56
167.54	-17.09
158.08	-21.67
151.06	-27.77
145.87	-32.65
142.82	-34.18
142.52	-30.52
145.57	-22.58
149.84	-13.73
150.15	-7.63
144.35	-3.66
132.45	-0.61
120.85	0
120.24	-7.02
141.91	-27.47
191.04	-60.73
260.31	-96.44
326.84	-121.77
359.5	-135.19
334.78	-151.67
254.21	-197.14
147.09	-287.17
53.1	-414.12
-0.92	-547.18
-13.12	-648.5
-9.16	-695.80(R)
-22.58	-692.14
-72.94	-651.25
-148.93	-586.24
-217.9	-506.9
-243.84	-421.75
-212.4	-344.54
-139.47	-289
-61.34	-256.65
-5.8	-235.9
20.14	-215.76
27.77	-194.4
34.18	-176.39
50.96	-162.05
79.96	-140.99
115.05	-102.54
145.57	-49.13
161.13	2.75
158.69	34.18
145.87	39.06
135.8	26.55
137.94	12.21
151.37	8.85
169.07	19.23
183.11	39.67
191.96	63.17
196.84	84.84
199.28	102.23
197.75	115.05
191.04	124.51
179.44	129.7
166.32	130.31
156.25	127.26
152.28	124.21
153.81	122.99
158.08	124.82
160.83	128.48
160.22	132.45
157.17	137.02
154.72	143.43
155.33	152.59
158.39	162.96
161.44	172.73
162.35	179.44
160.83	184.63
159	190.12
158.08	198.97
158.69	210.57
158.69	223.39
156.25	234.68
151.98	245.06
148.62	256.96
151.06	273.13
162.05	294.49
180.66	318.6
201.42	343.02
217.9	366.52
225.52	389.71
224.3	412.29
218.2	434.57
212.71	456.24
211.79	477.6
216.37	500.49
224.61	525.82
233.15	553.28
239.87	580.44
244.14	605.16
248.11	625.31
253.91	640.26
262.76	648.19
272.83	648.19
281.37	639.04
286.87	622.86
289.92	600.89
292.05	574.95
294.19	544.74
296.02	509.34
296.94	468.44
296.94	425.11
296.33	381.47
294.8	339.97
291.44	301.21
284.73	263.98
274.66	228.27
262.76	194.7
250.85	163.88
240.78	136.41
233.15	112.61
227.36	91.55
221.56	72.33
215.15	54.02
206.91	36.32
195.62	18.62
180.97	1.53
163.27	-14.34
146.79	-26.86
135.19	-34.79
129.7	-38.45
127.87	-40.59
124.82	-43.95
118.41	-49.13
109.56	-54.63
102.23	-57.68
98.27	-57.68
96.74	-55.54
94.6	-52.8
90.03	-50.96
82.7	-51.27
73.85	-53.1
65.92	-55.85
61.34	-58.29
61.65	-60.73
66.83	-62.56
74.16	-64.39
79.35	-66.53
78.74	-68.66
72.63	-70.19
65.92	-71.11
64.09	-71.11
69.27	-70.5
79.35	-69.89
88.81	-70.19
93.38	-71.41
91.86	-72.94
87.59	-73.85
83.01	-74.46
79.04	-75.07
74.46	-76.29
69.27	-77.51
65.61	-78.43
65	-79.04
68.05	-80.26
72.33	-81.79
74.77	-82.7
74.16	-82.09
72.33	-80.26
70.8	-79.65
69.89	-81.79
68.66	-86.67
66.22	-92.16
63.48	-95.83
61.95	-96.44
61.95	-94.3
62.87	-91.25
62.56	-89.11
59.51	-90.33
52.8	-93.69
43.95	-97.96
36.32	-101.01
32.96	-101.62
36.93	-100.71
47.91	-99.18
62.87	-97.35
74.77	-96.44
78.74	-96.13
73.55	-97.05
63.17	-98.57
54.63	-100.4
52.8	-100.71
56.76	-98.57
61.65	-94.6
62.26	-91.55
57.37	-92.47
50.05	-97.35
43.95	-104.06
41.81	-108.95
42.11	-109.56
43.33	-106.81
44.25	-102.54
45.17	-100.1
47.61	-100.1
50.05	-102.54
51.27	-106.2
50.66	-108.03
48.83	-106.81
48.83	-103.76
51.57	-101.01
54.63	-100.71
54.63	-103.45
51.57	-106.81
47.91	-108.34
47.3	-107.73
49.44	-106.2
50.66	-105.9
47.61	-108.03
41.2	-112
35.1	-115.66
32.35	-118.71
32.96	-120.54
35.71	-120.54
38.76	-118.1
42.11	-113.53
45.17	-108.03
47	-104.06
45.17	-103.45
39.98	-105.59
33.57	-108.95
27.77	-111.69
24.11	-112.61
23.5	-111.39
25.94	-108.03
30.52	-104.06
34.79	-101.32
36.32	-101.01
34.48	-102.54
30.21	-104.37
25.63	-104.98
22.28	-103.76
20.75	-103.15
20.45	-103.15
21.67	-103.76
23.5	-103.45
25.02	-101.32
24.11	-98.27
19.23	-95.83
10.99	-95.52
3.66	-96.44
1.83	-97.05
6.41	-95.83
14.34	-93.08
19.53	-89.42
18.31	-85.75
13.73	-83.01
11.9	-81.48
16.17	-81.18
23.8	-82.09
29.3	-83.31
28.69	-84.23
24.41	-83.92
21.36	-81.48
22.58	-76.9
26.86	-70.8
29.6	-65.31
28.38	-62.26
23.8	-62.26
18.31	-64.39
14.04	-66.53
11.6	-66.83
9.77	-65.92
7.32	-65
4.58	-65
2.44	-65.31
1.83	-65.61
1.83	-64.39
1.53	-63.17
0.92	-61.65
0.31	-58.9
2.14	-53.71
7.93	-44.25
16.78	-31.74
25.02	-18.01
31.13	-5.49
34.48	5.49
36.93	13.43
40.59	17.09
47.61	17.09
56.76	14.95
65.31	13.43
71.41	14.95
75.38	17.7
78.13	18.62
80.87	13.43
83.01	0.61
81.79	-16.48
75.38	-32.04
63.78	-40.89
48.83	-40.89
33.87	-35.1
19.84	-29.3
6.1	-28.69
-7.32	-34.79
-19.84	-44.86
-29.3	-54.63
-33.87	-61.34
-34.18	-65.31
-33.87	-68.36
-35.71	-72.02
-39.67	-75.68
-42.72	-77.82
-43.03	-76.6
-39.67	-72.63
-34.18	-66.22
-28.08	-58.29
-21.67	-47
-12.82	-26.86
1.22	7.02
21.97	56.46
49.13	119.32
84.53	188.9
136.72	259.4
219.42	325.01
347.6	379.64
522.16	411.38(R)
708.01	397.64
822.14	323.79
781.56	205.99
560.91	79.96
226.14	-13.12
-85.45	-52.19
-249.63	-51.27
-240.78	-43.33
-137.02	-47.61
-46.39	-61.04
-27.77	-71.41
-66.83	-72.63
-113.22	-68.36
-129.7	-66.53
-118.1	-70.5
-100.71	-76.9
-93.08	-80.26
-95.21	-79.96
-100.4	-78.43
-103.76	-77.82
-104.68	-77.82
-104.68	-78.13
-104.06	-76.9
-103.15	-74.16
-102.54	-70.19
-102.84	-67.75
-103.76	-67.75
-104.98	-70.19
-105.59	-73.24
-104.06	-74.16
-101.01	-72.94
-97.66	-69.89
-95.83	-67.14
-94.91	-64.39
-92.47	-62.26
-85.75	-60.42
-75.99	-57.98
-68.66	-55.85
-68.97	-54.63
-77.21	-54.63
-86.98	-55.54
-91.55	-57.68
-87.89	-60.42
-80.87	-62.56
-76.29	-62.56
-77.51	-59.51
-81.79	-55.24
-85.75	-52.49
-87.59	-53.1
-88.5	-56.15
-90.03	-57.68
-91.55	-55.85
-92.77	-50.66
-93.08	-45.47
-91.86	-42.11
-88.2	-40.59
-83.01	-38.15
-79.35	-32.65
-80.57	-23.8
-88.5	-14.65
-99.79	-6.41
-107.42	0.31
-106.2	7.02
-96.13	14.95
-81.79	24.11
-70.19	32.96
-64.39	38.76
-63.78	41.2
-67.14	42.42
-72.94	44.56
-78.74	49.74
-81.79	57.37
-81.18	65.31
-77.21	71.41
-72.63	75.07
-69.58	77.21
-68.66	80.57
-68.66	86.06
-67.14	93.38
-63.48	99.79
-57.68	102.23
-50.66	98.27
-44.56	87.28
-39.37	72.63
-35.71	57.68
-33.26	46.39
-32.35	38.45
-32.65	32.35
-33.87	25.94
-35.1	17.7
-34.79	8.24
-32.35	-1.22
-29.6	-10.07
-27.16	-17.4
-26.86	-22.58
-28.38	-25.02
-30.52	-24.72
-31.13	-22.58
-30.21	-21.36
-29.6	-22.28
-30.21	-24.72
-32.35	-28.08
-35.4	-30.21
-37.84	-29.6
-37.23	-27.16
-33.87	-25.63
-29.6	-26.86
-26.25	-32.04
-25.63	-39.37
-27.77	-45.78
-31.13	-47.3
-34.48	-44.56
-37.54	-40.89
-40.28	-39.67
-41.81	-43.33
-43.64	-49.74
-47.61	-56.15
-54.32	-59.2
-62.87	-58.59
-69.58	-55.54
-69.89	-52.19
-62.56	-48.52
-50.05	-42.72
-36.93	-30.82
-25.33	-13.12
-14.95	2.14
-1.53	0.61
20.75	-29.3
56.76	-86.06
101.93	-150.76
138.55	-199.28
143.74	-221.25
100.71	-231.93
14.95	-263.37
-84.53	-339.36
-163.27	-455.63
-202.64	-581.97
-212.1	-680.24
-219.12	-727.23(R)
-248.11	-722.96
-302.12	-677.49
-361.94	-602.11
-399.78	-508.12
-397.64	-412.29
-357.67	-333.56
-297.24	-282.29
-236.82	-253.91
-189.82	-233.76
-158.08	-210.88
-139.47	-188.9
-130	-177
-124.51	-176.09
-115.66	-172.73
-98.88	-149.54
-74.46	-101.93
-49.74	-43.33
-35.71	3.97
-36.62	24.72
-46.69	21.06
-54.63	7.32
-52.8	-2.14
-41.81	-1.53
-27.16	6.71
-14.04	18.01
-2.44	29.6
9.16	42.72
20.75	57.98
28.69	74.77
29.3	90.33
21.67	101.62
9.16	107.42
-3.36	108.03
-12.82	107.42
-17.4	108.64
-17.09	113.53
-13.43	120.54
-8.85	126.95
-4.88	130.92
-2.75	133.67
-2.44	136.72
-3.97	141.91
-5.8	150.76
-6.41	164.18
-4.58	179.75
-0.61	193.48
4.58	201.72
8.85	205.08
11.6	207.52
12.82	215.45
14.95	231.93
18.92	254.82
25.33	278.32
33.87	298.77
42.11	316.47
48.83	335.08
54.32	357.97
59.81	384.83
67.14	413.21
76.6	438.23
85.75	458.68
92.47	476.07
96.74	493.77
101.01	514.53
108.34	538.02
119.32	561.52
131.84	580.14
142.52	590.21
148.62	589.9
150.15	580.44
149.23	563.35
148.93	541.08
150.45	515.75
154.11	487.98
159.3	458.37
163.27	426.33
163.27	391.24
156.56	353.09
143.13	312.81
126.34	272.83
112.92	236.51
106.81	205.38
107.73	177.61
107.73	151.67
99.49	126.65
81.48	103.15
61.04	82.7
47.91	65
47	48.22
53.1	31.74
57.68	16.17
53.1	2.44
39.06	-9.46
19.53	-21.36
0	-34.18
-15.26	-46.08
-24.41	-53.41
-29.3	-56.46
-32.96	-59.51
-38.45	-65.31
-46.08	-74.46
-53.41	-82.7
-57.37	-86.06
-57.37	-83.62
-54.93	-79.96
-52.8	-79.35
-52.8	-82.4
-54.02	-85.45
-55.85	-84.84
-55.85	-79.35
-53.41	-72.33
-50.05	-69.58
-49.13	-73.85
-53.1	-84.84
-59.81	-96.44
-65	-104.37
-63.17	-106.2
-54.63	-104.37
-44.25	-103.45
-37.84	-106.2
-37.84	-111.39
-41.2	-115.05
-43.64	-113.53
-43.03	-107.12
-41.81	-98.88
-42.72	-93.99
-46.39	-94.3
-51.57	-98.57
-54.02	-103.15
-52.8	-105.59
-49.74	-106.51
-47.61	-108.95
-49.13	-113.83
-53.71	-119.02
-58.29	-121.46
-60.12	-119.63
-57.98	-115.97
-54.32	-113.22
-51.27	-113.83
-49.74	-115.66
-50.05	-115.97
-50.66	-113.53
-51.57	-109.56
-52.49	-106.2
-53.1	-104.06
-52.49	-103.45
-50.05	-104.37
-47	-106.81
-44.56	-110.78
-44.25	-114.75
-45.17	-117.49
-47	-117.49
-48.52	-114.44
-49.74	-110.78
-50.96	-108.95
-52.49	-108.95
-53.41	-109.56
-53.41	-108.03
-53.1	-104.37
-52.8	-99.79
-52.8	-98.27
-53.71	-101.01
-54.02	-105.59
-54.02	-107.73
-54.32	-106.2
-55.54	-103.15
-57.07	-101.32
-58.29	-101.93
-57.07	-102.84
-52.8	-102.54
-46.69	-101.62
-41.5	-103.15
-37.84	-108.34
-36.32	-114.44
-36.01	-117.8
-36.62	-117.19
-37.84	-113.22
-40.59	-108.95
-43.33	-105.9
-44.25	-104.98
-43.33	-105.59
-40.89	-108.34
-38.45	-111.39
-36.93	-112.92
-35.71	-110.78
-35.4	-106.81
-38.15	-103.76
-45.17	-103.45
-54.63	-105.59
-62.56	-107.12
-64.09	-104.98
-56.76	-99.79
-43.95	-95.21
-31.43	-93.69
-25.02	-95.83
-27.16	-99.79
-36.01	-102.54
-46.08	-102.23
-52.49	-99.18
-52.8	-94.6
-48.83	-89.72
-43.95	-85.14
-41.81	-81.79
-43.33	-80.26
-47	-81.48
-49.74	-83.92
-48.52	-85.45
-43.64	-84.53
-38.45	-81.18
-35.4	-76.9
-36.62	-74.16
-40.89	-72.94
-46.08	-71.72
-49.44	-69.58
-50.05	-66.53
-47.3	-64.09
-43.03	-63.17
-39.67	-62.56
-38.76	-61.95
-40.59	-61.65
-43.64	-62.56
-47	-65.31
-48.83	-69.27
-49.44	-72.02
-50.05	-72.02
-50.66	-68.66
-50.05	-63.48
-47.91	-58.59
-44.56	-56.15
-42.72	-57.98
-43.64	-63.78
-46.08	-68.36
-47.91	-68.36
-46.69	-62.56
-43.03	-54.93
-39.98	-49.44
-39.67	-49.44
-42.42	-53.71
-45.78	-57.98
-47.91	-59.81
-47.91	-59.51
-46.39	-57.37
-44.25	-55.54
-42.11	-55.54
-41.5	-57.07
-42.42	-58.29
-45.17	-56.15
-47.61	-48.52
-46.69	-37.23
-40.28	-26.55
-30.21	-20.14
-20.14	-17.7
-14.04	-14.95
-12.51	-7.02
-12.82	7.63
-12.51	24.11
-10.38	34.79
-6.71	35.4
-1.22	28.69
7.32	22.28
20.14	22.89
35.71	29.6
49.44	34.79
55.54	29.6
50.96	12.51
36.32	-10.07
18.62	-27.77
6.41	-33.87
3.05	-28.99
3.66	-21.06
0.31	-18.92
-11.6	-26.55
-27.77	-40.89
-40.28	-54.02
-44.86	-61.34
-43.33	-62.26
-41.2	-60.42
-42.72	-60.42
-45.78	-62.87
-47.61	-65.31
-47.3	-65.92
-45.78	-63.78
-45.47	-60.73
-47.61	-58.29
-49.44	-55.54
-47	-44.86
-36.01	-19.23
-11.6	22.58
25.94	72.02
73.85	114.44
132.45	144.35
208.74	170.59
308.53	207.21
426.94	249.02
538.02	265.5
590.82	222.17
536.19	117.49
367.74	-7.02
134.58	-94.91
-78.74	-115.66
-196.53	-87.28
-200.81	-54.63
-136.11	-47.61
-68.97	-62.87
-42.42	-79.35
-56.15	-83.31
-83.62	-77.21
-101.01	-72.33
-102.23	-75.68
-95.21	-83.92
-88.5	-90.03
-84.23	-90.03
-81.79	-85.45
-79.96	-79.65
-79.35	-75.99
-79.35	-76.6
-79.35	-79.65
-78.43	-82.7
-77.51	-82.4
-76.9	-78.74
-76.9	-73.55
-75.38	-69.58
-72.94	-68.36
-69.27	-69.27
-65.31	-69.58
-62.26	-68.05
-61.04	-65
-61.04	-63.17
-62.56	-63.78
-65	-67.44
-67.14	-71.11
-68.66	-73.24
-70.19	-72.63
-72.33	-70.5
-74.46	-65.92
-74.77	-60.12
-71.72	-53.71
-65	-48.83
-57.37	-46.69
-50.96	-46.69
-47	-45.78
-46.39	-41.2
-47.91	-33.87
-50.35	-26.25
-51.57	-21.36
-50.35	-19.84
-46.39	-20.14
-42.11	-19.84
-39.06	-18.01
-38.15	-14.04
-39.06	-9.46
-39.98	-5.19
-39.98	-0.92
-35.4	17.7
-32.96	25.63
-30.82	33.26
-30.21	39.98
-31.13	47.91
-32.04	57.68
-31.13	69.89
-27.16	81.79
-21.06	90.33
-14.95	95.21
-10.38	98.88
-7.02	104.98
-4.27	114.44
-1.83	126.04
0.61	135.5
3.05	140.99
5.49	143.13
7.32	144.65
8.54	147.71
10.07	151.06
12.51	151.98
15.56	148.32
18.92	140.08
21.06	127.87
20.45	113.22
17.4	97.66
14.04	80.87
11.9	64.39
11.29	49.44
10.99	36.01
8.85	23.19
3.66	11.6
-1.53	2.14
-3.97	-3.66
-1.83	-6.71
2.44	-9.46
4.58	-14.65
3.05	-22.58
0	-29.91
-1.22	-34.18
-0.31	-35.4
0.31	-36.32
-1.22	-38.76
-5.19	-43.03
-8.54	-46.69
-7.93	-47.61
-4.27	-45.47
0.92	-41.2
4.88	-37.54
6.71	-36.62
5.8	-39.37
2.44	-43.95
-2.14	-47.91
-6.41	-49.13
-8.24	-46.08
-6.71	-40.59
-3.05	-35.1
0.92	-32.35
3.05	-34.18
1.53	-39.67
-3.97	-46.08
-11.6	-50.66
-19.23	-51.57
-24.41	-48.83
-24.72	-44.86
-21.06	-41.81
-16.48	-40.89
-13.43	-41.5
-13.12	-42.42
-15.87	-42.11
-20.45	-40.89
-26.25	-40.28
-30.82	-40.59
-32.35	-41.5
-29.91	-41.5
-25.94	-40.89
-23.8	-40.59
-26.25	-41.81
-31.13	-44.86
-33.26	-48.22
-30.52	-48.83
-23.8	-42.42
-17.7	-27.77
-13.43	-10.38
-5.49	-1.83
16.48	-13.43
60.42	-48.22
121.46	-95.83
180.66	-138.85
210.27	-170.59
190.43	-199.89
123.6	-247.5
33.57	-331.73
-44.86	-453.49
-88.5	-593.26
-101.01	-721.74
-102.84	-813.29
-116.88	-855.41(R)
-154.72	-850.22
-213.93	-803.53
-278.93	-722.05
-330.51	-616.76
-350.95	-506.59
-330.81	-413.82
-276.49	-354.31
-209.05	-325.01
-154.11	-308.53
-125.43	-290.22
-118.1	-267.33
-114.14	-245.06
-96.44	-221.86
-61.65	-189.82
-19.84	-140.69
12.82	-80.57
25.94	-27.16
20.75	3.97
8.54	11.29
0.61	7.63
3.66	7.63
18.01	18.01
39.67	36.62
60.73	56.76
73.55	72.33
72.94	81.18
59.51	83.31
39.06	81.18
21.36	77.21
12.21	74.16
12.21	73.85
14.95	75.07
14.34	75.99
9.16	75.68
3.66	76.29
3.05	79.35
8.24	85.45
15.26	93.38
18.01	100.4
15.26	106.51
10.68	112.92
8.24	120.54
9.16	127.56
11.29	133.36
13.12	138.24
15.87	144.96
20.45	156.25
25.63	171.2
28.08	186.77
26.55	202.33
23.8	218.2
-54.93	27.16
-55.85	30.52
-55.85	34.48
-52.49	36.32
-47	35.71
-42.11	33.87
-41.5	32.65
-46.08	32.65
-53.71	31.74
-60.12	28.08
-62.56	21.06
-61.34	12.51
-59.51	4.58
-57.37	-1.22
-52.8	-3.05
-43.64	-0.61
-31.43	3.05
-22.58	3.97
-24.72	-0.61
-36.93	-9.77
-50.96	-19.23
-56.76	-23.8
-51.57	-23.19
-41.5	-20.14
-35.4	-18.92
-37.23	-20.75
-43.03	-24.41
-45.78	-27.77
-41.2	-30.52
-29.3	-32.96
-15.26	-36.01
-4.88	-40.89
-2.75	-48.52
-9.46	-58.29
-19.84	-66.53
-25.94	-69.89
-23.5	-67.14
-14.65	-63.17
-6.1	-63.78
-2.75	-72.94
-3.66	-88.81
-1.83	-103.45
7.32	-110.47
21.97	-110.47
34.18	-109.86
35.4	-115.36
25.63	-128.78
13.43	-145.26
9.46	-155.94
18.31	-157.78
34.48	-153.81
49.13	-151.06
54.32	-154.42
50.05	-163.57
42.42	-174.26
36.93	-181.58
35.4	-183.72
35.71	-182.19
35.1	-179.75
33.57	-178.22
34.18	-177
39.98	-173.65
49.13	-167.85
55.24	-161.13
52.19	-157.78
39.37	-160.52
24.72	-166.32
18.92	-169.07
26.86	-164.49
41.2	-155.64
50.35	-148.93
47.61	-148.93
35.4	-153.2
24.11	-155.94
20.75	-153.2
22.89	-148.62
24.11	-146.79
21.97	-149.84
19.53	-154.42
21.36	-155.33
27.16	-151.98
32.04	-147.09
32.65	-142.82
28.99	-140.08
24.72	-137.63
21.06	-134.28
15.56	-131.84
7.93	-130.31
1.22	-127.87
1.83	-122.68
10.99	-113.83
22.58	-104.68
27.47	-99.49
22.89	-98.88
12.21	-100.1
2.44	-98.57
-1.83	-93.69
-2.14	-86.98
-4.27	-82.4
-10.07	-80.87
-16.78	-79.35
-19.84	-75.38
-16.17	-65.92
-8.54	-53.71
-5.19	-44.56
-11.6	-42.72
-25.33	-46.69
-39.06	-52.49
-42.72	-53.41
-34.48	-46.39
-21.67	-34.48
-16.17	-24.41
-23.5	-19.53
-39.06	-19.23
-52.49	-20.14
-55.54	-18.92
-48.52	-14.34
-37.84	-7.93
-31.74	-1.83
-32.65	3.05
-36.32	7.02
-36.93	10.99
-33.87	14.95
-30.21	18.31
-32.65	19.23
-43.95	16.17
-59.2	10.07
-69.27	5.19
-70.8	4.88
-65	9.46
-57.68	16.78
-53.71	23.19
-53.1	28.38
-52.49	32.35
-50.05	36.01
-46.69	38.76
-44.25	40.28
-44.56	41.2
-47.61	42.42
-52.49	43.95
-57.07	46.39
-58.29	50.35
-54.32	57.68
-46.39	68.66
-37.23	81.48
-30.82	93.38
-28.08	104.37
-27.77	115.66
-26.86	128.78
-24.11	141.91
-19.23	151.37
-13.73	154.42
-9.16	151.06
-5.8	144.96
-1.22	140.38
5.19	138.55
13.12	137.94
19.84	134.89
21.36	126.34
15.87	113.22
5.49	100.4
-4.88	93.69
-11.29	96.13
-13.73	105.29
-15.56	113.53
-23.19	112.92
-38.76	101.62
-59.2	83.92
-77.82	66.83
-88.81	56.76
-90.64	53.1
-85.75	52.49
-76.9	52.8
-65.92	53.1
-55.54	54.32
-50.05	55.24
-51.88	55.85
-59.51	55.85
-67.44	55.54
-66.53	57.98
-52.49	69.27
-25.63	95.83
7.63	142.52
40.89	206.91
73.24	279.54
114.75	350.95
184.94	413.82
303.65	463.26
476.38	492.55(R)
671.69	480.04
806.88	407.41
792.85	286.56
593.87	150.76
266.72	42.42
-54.02	-10.99
-236.21	-20.14
-240.78	-18.01
-137.94	-26.86
-36.93	-46.08
-3.97	-63.78
-32.35	-70.8
-72.94	-68.36
-87.28	-64.7
-72.63	-66.22
-52.8	-74.16
-45.78	-86.36
-52.49	-100.1
-64.09	-112
-71.11	-118.1
-69.27	-117.49
-61.65	-114.14
-54.02	-113.83
-51.88	-117.8
-53.71	-122.99
-54.02	-124.21
-48.83	-121.46
-39.67	-119.02
-32.04	-121.15
-30.82	-128.48
-35.1	-136.72
-39.67	-140.69
-37.84	-137.33
-29.91	-129.7
-22.28	-123.29
-22.58	-123.6
-36.01	-131.84
-57.07	-143.43
-73.24	-151.67
-73.24	-151.06
-53.1	-140.99
-21.06	-125.43
6.1	-112.3
14.34	-107.12
2.14	-110.47
-20.75	-119.32
-37.84	-127.56
-40.89	-130
-33.87	-126.95
-27.77	-121.46
-29.3	-117.49
-36.01	-116.27
-41.2	-115.97
-40.59	-114.14
-35.1	-109.86
-29.6	-105.29
-28.08	-102.84
-29.91	-102.23
-32.35	-100.1
-33.87	-93.38
-32.35	-80.57
-29.6	-66.22
-28.69	-55.54
-29.6	-50.35
-31.74	-47.61
-34.79	-42.72
-38.76	-33.57
-43.33	-20.75
-47	-7.32
-45.78	5.8
-37.54	17.4
-25.63	26.25
-17.09	32.04
-18.01	34.48
-27.77	36.32
-39.06	41.5
-45.17	50.05
-46.08	59.51
-44.25	67.14
-43.03	72.02
-41.81	74.16
-36.93	76.29
-24.41	78.13
-7.63	77.82
7.93	73.24
16.48	63.17
15.87	48.83
8.54	33.87
0	21.97
-5.19	16.48
-5.19	15.87
-2.14	16.48
2.14	14.65
5.49	9.16
7.93	1.53
9.16	-5.49
8.85	-10.38
5.19	-14.04
-2.75	-16.48
-12.21	-18.62
-16.48	-18.62
-11.6	-14.95
-0.31	-8.54
10.68	-1.22
14.34	3.05
9.16	2.14
1.83	-3.05
-0.92	-9.46
2.44	-13.43
8.54	-14.34
11.29	-13.73
8.54	-13.43
1.83	-14.34
-6.41	-16.48
-13.73	-17.7
-19.23	-17.09
-23.19	-15.56
-24.72	-14.04
-23.5	-12.51
-19.23	-9.77
-12.82	-5.8
-5.19	-0.92
-0.31	1.22
-3.05	-2.44
-14.95	-12.21
-32.04	-23.19
-46.39	-28.08
-51.88	-23.8
-48.83	-13.12
-43.64	-1.53
-42.42	5.49
-46.39	5.49
-50.35	0.92
-49.13	-4.58
-42.72	-9.46
-36.01	-12.21
-34.79	-14.04
-39.98	-15.87
-47.61	-19.23
-51.57	-23.19
-49.13	-26.55
-42.11	-28.69
-35.4	-28.69
-31.13	-28.08
-28.99	-28.38
-27.16	-31.13
-22.58	-36.01
-13.43	-42.42
-0.31	-48.52
11.6	-54.93
14.95	-63.48
6.71	-74.16
-7.02	-83.31
-15.87	-87.89
-12.51	-88.2
0	-87.89
12.82	-91.55
19.23	-99.79
21.06	-108.03
21.67	-112.92
22.28	-115.36
21.97	-117.8
22.89	-120.85
27.77	-123.29
37.23	-122.99
45.78	-121.77
45.47	-121.46
34.48	-122.38
21.36	-122.07
15.26	-120.24
19.23	-118.1
28.99	-117.49
37.23	-117.8
39.67	-118.1
35.4	-118.41
25.33	-120.24
13.73	-124.21
6.1	-127.26
8.85	-124.51
21.06	-116.27
33.87	-108.03
36.01	-105.29
23.5	-109.25
5.19	-113.83
-3.36	-112.92
6.1	-105.59
28.99	-95.52
54.02	-87.28
69.89	-79.96
74.46	-70.8
72.94	-58.9
71.72	-47.3
73.85	-39.67
76.6	-38.45
77.51	-42.42
75.99	-47.91
76.29	-49.74
83.92	-45.47
99.79	-39.06
117.8	-36.93
128.48	-46.39
126.04	-67.75
113.22	-91.25
98.27	-104.98
86.98	-103.76
77.82	-92.77
65.31	-81.79
46.08	-79.35
21.97	-87.59
0.31	-101.32
-13.43	-115.05
-17.7	-123.6
-14.95	-124.82
-9.77	-119.93
-6.71	-113.22
-10.68	-109.56
-20.45	-109.86
-31.43	-111.39
-36.01	-110.47
-30.21	-105.9
-15.56	-99.79
-0.61	-96.74
7.93	-97.35
9.77	-95.83
10.99	-82.7
18.62	-48.52
36.01	8.54
63.48	83.31
102.54	165.1
160.52	242.61
249.63	307.92
381.16	354.31
555.11	374.76(R)
742.49	353.7
867.61	281.68
843.81	171.51
633.85	51.57
292.05	-42.72
-43.95	-89.11
-235.6	-95.52
-239.87	-88.2
-129.39	-86.98
-23.8	-94.3
3.05	-102.54
-40.59	-105.29
-97.05	-102.54
-119.02	-99.18
-102.23	-97.05
-73.24	-95.52
-56.76	-94.3
-57.98	-93.69
-67.14	-95.52
-72.63	-97.66
-68.97	-98.57
-59.81	-97.66
-51.88	-95.83
-51.27	-94.3
-57.68	-93.69
-64.7	-94.3
-66.83	-96.44
-62.56	-99.18
-54.32	-100.4
-45.47	-98.57
-38.45	-94.6
-34.79	-91.55
-34.18	-92.16
-36.62	-97.05
-41.2	-104.06
-46.39	-111.08
-49.74	-115.66
-51.57	-117.19
-52.19	-116.27
-51.57	-113.53
-49.74	-110.17
-46.69	-107.42
-42.72	-105.9
-38.45	-106.2
-33.87	-106.81
-28.69	-106.81
-24.41	-105.9
-21.97	-104.37
-21.97	-103.76
-23.5	-104.37
-25.02	-104.98
-25.33	-104.37
-24.72	-102.54
-23.5	-100.71
-21.67	-99.18
-18.62	-96.74
-14.34	-91.86
-11.9	-85.75
-13.73	-80.87
-20.45	-79.65
-28.69	-83.01
-34.48	-86.36
-33.57	-83.62
-25.33	-70.19
-13.73	-50.05
-5.49	-31.74
-5.49	-23.19
-15.87	-26.55
-32.35	-35.4
-46.08	-38.76
-50.66	-31.13
-45.47	-14.34
-34.18	4.58
-22.58	19.23
-14.04	27.77
-9.77	32.04
-8.85	34.48
-10.68	34.48
-13.73	31.13
-15.26	25.33
-13.12	19.23
-5.8	13.43
5.19	8.24
17.4	1.83
28.69	-6.71
37.84	-17.09
44.25	-27.47
47	-39.06
46.39	-50.96
44.25	-63.17
42.42	-75.07
40.89	-86.06
38.45	-95.52
34.79	-102.84
31.43	-107.42
32.65	-108.03
39.67	-105.9
48.22	-104.06
51.57	-104.68
46.69	-108.03
37.54	-110.17
31.43	-109.56
31.13	-107.12
33.57	-104.68
33.87	-104.68
30.52	-105.59
26.86	-104.37
25.94	-100.71
26.86	-97.66
25.94	-98.57
22.58	-104.98
20.75	-112.61
24.11	-116.88
30.82	-115.36
35.1	-108.03
31.13	-97.96
18.92	-88.5
7.93	-84.53
12.51	-90.03
43.03	-108.64
99.79	-138.85
167.54	-174.56
221.25	-207.52
239.56	-234.99
216.37	-264.89
161.44	-314.94
93.69	-397.64
27.77	-511.47
-30.82	-637.51
-79.96	-743.41
-121.77	-802.61
-164.49	-809.33(R)
-219.73	-772.09
-288.7	-704.96
-354	-622.86
-386.66	-538.94
-364.69	-463.87
-296.02	-405.88
-215.15	-367.74
-156.25	-342.41
-129.39	-321.04
-120.85	-299.99
-108.95	-275.88
-81.48	-242.61
-42.11	-194.4
-3.36	-130.92
23.8	-62.87
33.26	-7.93
27.16	21.36
14.65	26.86
4.88	21.97
2.75	20.75
4.88	28.69
6.1	41.5
4.27	51.57
3.05	54.93
6.71	52.8
14.34	49.74
20.75	49.74
21.97	52.8
18.62	56.46
15.56	59.81
16.17	63.17
18.01	66.53
17.7	67.44
12.82	63.78
4.88	55.54
-2.14	44.86
-4.58	36.32
-3.36	30.82
-1.22	25.94
0.61	18.62
2.14	8.85
4.58	0.92
7.93	-0.31
12.82	10.68
20.75	35.1
32.04	70.5
48.83	110.78
70.19	149.84
91.55	183.11
108.03	212.1
115.66	240.48
111.69	269.78
97.96	297.55
79.35	320.74
64.09	339.66
58.59	358.28
64.09	380.25
76.9	407.1
91.25	437.01
102.84	465.09
109.86	489.2
113.83	508.73
115.66	525.21
117.49	540.47
120.54	555.11
127.87	568.54
140.08	578.31
155.03	581.67
166.32	576.78
168.76	561.52
161.44	535.28
150.15	499.27
143.13	458.68
145.26	419.92
155.03	386.35
166.32	357.97
174.56	332.34
177.61	305.48
175.17	274.96
166.93	240.17
153.2	203.55
136.72	169.37
123.6	142.21
116.88	124.21
114.75	110.78
112.3	96.44
105.29	79.35
93.99	62.87
80.57	49.44
64.39	38.45
45.17	25.33
24.72	7.63
7.93	-11.29
0	-24.41
1.83	-28.38
7.63	-26.55
8.85	-25.94
1.53	-30.21
-10.99	-36.32
-21.36	-38.45
-25.02	-34.48
-20.45	-25.63
-13.12	-17.4
-9.77	-13.73
-13.12	-15.56
-21.36	-21.06
-30.82	-27.77
-37.84	-32.04
-40.89	-32.04
-42.72	-28.69
-44.25	-24.41
-45.17	-21.67
-21.97	-20.75
-10.99	-22.89
-5.8	-27.16
-6.41	-32.35
-10.38	-36.93
-13.12	-39.98
-12.51	-42.11
-9.16	-43.64
-5.8	-44.86
-4.27	-44.56
-3.97	-43.64
-6.1	-45.78
-10.99	-51.57
-15.87	-58.29
-20.75	-61.34
-26.86	-60.12
-36.62	-58.29
-47.61	-60.73
-54.63	-69.27
-50.05	-78.43
-32.35	-81.48
-9.46	-76.6
5.19	-68.97
5.19	-65
-3.36	-68.05
-10.07	-75.68
-9.16	-83.62
-1.53	-87.28
5.49	-85.14
5.8	-79.96
-1.53	-75.99
-13.73	-76.29
-26.86	-82.7
-38.15	-92.16
-43.64	-101.01
-41.5	-105.59
-32.65	-105.29
-21.36	-102.54
-13.12	-100.71
-13.43	-101.93
-21.36	-105.59
-30.82	-109.25
-33.26	-108.64
-24.11	-102.23
-6.71	-93.38
7.32	-88.2
8.54	-91.25
-3.97	-101.62
-21.36	-113.53
-30.52	-119.93
-26.86	-120.54
-15.87	-119.63
-8.54	-121.46
-11.29	-126.65
-20.45	-132.14
-27.16	-133.67
-24.41	-130.31
-13.43	-125.73
-2.44	-124.51
0.31	-128.48
-6.71	-136.72
-18.01	-144.04
-25.33	-146.18
-22.89	-143.13
-11.9	-137.94
1.22	-137.02
8.24	-142.21
5.19	-150.76
-5.19	-155.64
-14.95	-151.67
-17.09	-140.08
-10.38	-127.87
-1.22	-122.07
0.92	-125.73
-7.93	-135.8
-22.89	-146.18
-34.79	-151.67
-35.4	-152.59
-25.94	-151.06
-14.34	-150.76
-10.38	-151.98
-16.78	-152.89
-29.3	-151.06
-38.15	-145.87
-37.54	-138.24
-28.08	-131.53
-16.78	-128.17
-10.68	-129.09
-11.9	-132.75
-18.01	-135.5
-25.02	-134.89
-31.13	-131.84
-36.93	-129.09
-40.59	-128.78
-41.2	-131.23
-36.32	-133.36
-27.47	-133.06
-20.45	-130.92
-18.62	-129.09
-21.97	-129.39
-28.38	-131.84
-33.26	-133.67
-32.35	-130.62
-25.33	-122.68
-14.95	-112
-7.63	-103.76
-8.24	-101.32
-16.78	-104.37
-28.08	-109.56
-36.01	-113.22
-38.76	-114.44
-37.54	-115.66
-33.87	-118.71
-27.47	-120.85
-17.7	-119.02
-7.02	-109.86
2.14	-95.83
5.49	-83.62
0.92	-81.48
-10.99	-92.16
-27.47	-110.47
-43.33	-126.65
-53.41	-131.23
-53.71	-121.46
-46.69	-104.06
-37.23	-90.33
-29.6	-85.75
-25.33	-90.64
-23.8	-98.88
-23.5	-104.06
-24.72	-102.23
-28.38	-96.13
-33.57	-88.81
-37.54	-84.23
-37.84	-83.92
-35.71	-86.98
-33.87	-90.33
-32.04	-89.72
-26.86	-85.14
-17.09	-78.43
-5.49	-75.07
0.61	-78.74
-2.14	-87.59
-10.68	-95.52
-18.01	-97.35
-19.23	-92.47
-17.4	-85.45
-17.7	-83.01
-21.36	-85.75
-25.02	-90.64
-26.55	-93.69
-25.94	-91.86
-25.02	-86.98
-24.41	-83.01
-22.89	-81.48
-19.84	-82.4
-19.23	-84.23
-22.89	-86.36
-29.6	-87.89
-34.79	-89.11
-33.26	-89.72
-24.11	-89.72
-10.68	-88.81
2.44	-86.98
10.38	-84.84
10.99	-83.31
6.1	-83.62
-0.31	-84.84
-4.27	-85.75
-6.1	-86.36
-8.54	-87.28
-14.04	-89.42
-22.58	-93.08
-28.08	-93.99
-23.8	-88.2
-9.77	-76.29
9.77	-63.17
25.63	-54.32
31.13	-52.19
25.94	-54.02
14.65	-54.32
5.19	-49.74
2.44	-40.89
9.16	-30.21
24.72	-19.53
45.47	-9.77
65	-2.14
77.82	0.31
82.4	-5.19
80.87	-17.7
77.82	-33.26
73.55	-47.61
65.31	-58.59
53.1	-66.53
39.98	-71.72
32.65	-72.33
32.35	-69.58
32.04	-67.14
21.06	-70.19
-1.83	-80.26
-28.38	-93.99
-46.39	-104.98
-50.66	-108.64
-45.17	-105.9
-39.67	-101.32
-37.84	-97.05
-36.93	-94.3
-33.57	-92.77
-28.38	-91.86
-24.11	-91.55
-23.19	-90.03
-21.97	-85.45
-15.26	-73.55
-0.92	-49.74
20.45	-11.29
48.83	41.81
84.53	106.2
132.45	177.61
201.42	253.6
299.68	332.03
433.96	402.83
593.57	441.89(R)
724.79	417.48
745.85	319.52
603.33	172.42
319.21	26.86
1.22	-68.36
-213.32	-97.66
-255.43	-84.53
-168.15	-64.39
-57.37	-57.98
-7.32	-64.7
-28.38	-75.38
-77.21	-84.53
-108.03	-92.16
-108.34	-99.18
-94.91	-103.45
-86.06	-101.62
-84.84	-93.69
-86.67	-85.75
-86.98	-81.79
-84.53	-81.79
-80.57	-83.01
-75.99	-83.31
-72.94	-83.31
-75.38	-84.53
-83.01	-88.81
-92.16	-93.38
-95.83	-94.6
-89.42	-89.72
-74.77	-80.26
-60.42	-70.8
-55.54	-65.92
-63.17	-66.53
-77.21	-71.11
-85.75	-76.9
-83.31	-81.48
-71.11	-83.92
-57.98	-83.62
-52.19	-81.79
-55.85	-78.43
-64.7	-74.16
-71.41	-69.58
-72.02	-65.92
-68.05	-63.78
-62.56	-63.17
-58.9	-62.87
-55.54	-61.34
-50.66	-57.37
-43.95	-51.88
-40.28	-47.3
-44.86	-45.17
-57.37	-46.08
-70.19	-47.61
-74.46	-46.69
-68.05	-43.03
-58.59	-37.23
-54.93	-32.65
-60.12	-31.43
-68.05	-32.35
-68.97	-31.13
-59.51	-25.02
-45.17	-13.43
-35.1	0.61
-34.79	13.12
-41.81	19.84
-47.91	21.36
-46.39	21.67
-36.62	25.02
-25.02	33.26
-18.92	43.95
-20.75	52.49
-26.86	56.15
-31.74	56.46
-31.13	57.07
-27.16	61.34
-22.89	69.27
-19.53	78.13
-16.48	86.06
-11.29	92.16
-4.27	96.13
1.22	99.79
1.83	102.84
-2.75	103.15
-9.46	98.27
-14.04	86.67
-13.73	70.5
-9.46	54.93
-4.27	43.95
0.31	38.15
3.36	33.87
5.19	26.55
5.19	13.43
3.05	-2.44
-0.31	-16.48
-2.14	-24.11
0.31	-25.02
4.88	-23.19
7.32	-23.5
4.58	-27.47
-1.22	-32.35
-4.58	-34.18
-2.75	-32.35
4.27	-28.99
12.21	-26.55
14.65	-26.86
10.07	-28.69
0	-32.04
-10.99	-36.93
-16.78	-40.59
-13.43	-39.67
-4.88	-33.87
2.14	-26.86
2.44	-23.8
-4.58	-28.38
-14.65	-38.45
-21.36	-47.61
-22.58	-50.96
-20.75	-48.52
-18.92	-42.11
-18.92	-34.48
-19.53	-28.38
-19.23	-25.33
-15.56	-24.11
-10.68	-24.72
-9.16	-27.16
-14.65	-31.13
-24.72	-35.4
-35.4	-37.84
-41.2	-36.62
-39.67	-31.74
-33.57	-26.55
-26.55	-24.41
-22.58	-26.25
-22.58	-29.6
-26.25	-32.04
-31.43	-32.65
-36.01	-32.04
-39.37	-31.43
-40.59	-29.6
-40.28	-25.02
-37.84	-18.92
-33.26	-13.43
-26.86	-12.21
-22.58	-16.78
-24.11	-24.41
-30.82	-30.21
-39.67	-27.47
-43.64	-16.17
-35.4	-2.75
-9.77	0
35.71	-19.84
96.13	-61.65
156.86	-111.69
194.4	-157.78
187.68	-198.67
133.97	-245.67
54.02	-315.55
-18.62	-414.12
-60.42	-531.92
-73.85	-647.58
-79.04	-740.05
-101.62	-795.29
-151.98	-807.19(R)
-221.86	-774.84
-292.05	-700.38
-342.71	-595.4
-359.19	-482.18
-339.36	-386.35
-294.19	-325.32
-241.7	-297.24
-198.97	-281.98
-173.34	-261.84
-158.69	-235.9
-143.43	-214.84
-119.93	-205.08
-87.89	-196.84
-53.41	-171.81
-25.02	-121.77
-7.63	-59.2
-0.92	-9.77
0.92	11.9
5.19	10.38
15.87	4.58
33.87	10.07
54.32	28.99
70.5	52.19
76.6	71.11
70.8	83.01
55.54	90.64
36.01	94.91
18.01	94.91
3.36	89.11
-9.46	79.96
-21.67	72.02
-28.99	70.5
-26.25	76.29
-11.6	86.98
8.24	96.44
22.58	101.62
24.41	102.23
14.65	100.71
1.22	101.93
-7.93	109.56
-10.38	123.9
-7.02	141.3
0.61	156.25
12.82	165.1
26.86	167.54
38.15	166.93
40.59	167.85
32.04	173.03
15.87	183.72
2.14	201.11
2.75	225.52
20.14	256.65
46.69	290.53
65.92	318.3
66.22	334.78
49.74	342.71
30.82	351.26
23.5	369.87
30.52	402.22
44.56	444.64
57.68	489.5
67.14	531.01
74.77	564.58
84.84	588.99
96.44	604.86
108.64	616.46
120.85	629.27
132.14	644.53
140.08	657.04
145.26	659.79
149.23	649.72
153.5	629.88
158.08	605.16
162.05	579.22
166.02	550.54
171.51	516.05
179.14	473.94
184.94	426.94
183.11	378.11
172.12	330.51
158.69	288.09
150.15	252.69
148.32	224
149.84	199.28
147.09	173.03
135.8	142.21
118.1	107.12
99.18	72.63
82.4	46.39
70.5	31.74
62.26	25.33
54.63	19.53
46.08	9.16
37.54	-7.02
31.13	-24.11
28.69	-37.23
27.16	-44.86
22.28	-49.13
10.68	-52.19
-8.54	-55.85
-30.21	-60.42
-44.86	-65
-45.47	-68.36
-32.96	-70.19
-14.04	-70.5
-1.53	-70.5
-3.05	-71.41
-15.56	-72.33
-28.38	-71.72
-34.18	-69.27
-32.65	-64.09
-28.99	-55.54
-29.6	-46.08
-35.71	-39.06
-43.33	-38.15
-49.74	-43.64
-53.71	-53.1
-53.71	-61.34
-50.05	-64.39
-43.03	-62.87
-32.65	-57.98
-21.06	-52.8
-13.43	-49.44
-13.43	-49.13
-20.75	-52.49
-32.04	-57.68
-39.98	-60.73
-38.76	-59.51
-30.21	-55.24
-21.36	-50.96
-18.01	-49.44
-22.58	-51.88
-31.43	-56.46
-39.06	-60.12
-41.81	-61.65
-38.15	-61.04
-28.69	-59.2
-17.7	-57.37
-9.16	-57.07
-7.63	-59.81
-12.82	-64.39
-21.67	-70.5
-29.3	-75.99
-31.74	-78.74
-29.91	-78.74
-26.25	-77.21
-24.41	-75.38
-25.02	-74.16
-28.08	-72.94
-31.13	-71.41
-30.82	-68.97
-25.94	-66.53
-19.53	-65.61
-15.56	-66.53
-16.17	-68.66
-20.14	-71.72
-23.19	-75.38
-22.89	-77.51
-19.84	-77.82
-17.09	-75.99
-17.09	-72.94
-18.92	-70.19
-20.75	-69.27
-19.84	-68.97
-13.73	-67.14
-4.88	-62.87
2.44	-58.59
3.36	-57.07
-3.36	-58.59
-14.04	-61.34
-23.8	-63.48
-28.38	-64.7
-27.16	-65.61
-22.89	-67.14
-18.01	-68.05
-14.95	-67.14
-14.65	-65.61
-16.48	-65
-16.78	-64.39
-13.73	-61.95
-8.54	-58.29
-4.58	-55.24
-5.49	-55.54
-10.68	-59.2
-15.87	-63.17
-18.31	-63.78
-17.7	-60.73
-15.87	-55.85
-14.65	-51.88
-14.65	-50.35
-14.65	-50.96
-14.34	-52.49
-14.34	-54.02
-15.26	-54.63
-17.7	-54.02
-21.36	-53.1
-25.33	-53.1
-28.69	-54.02
-30.21	-54.63
-30.21	-53.41
-28.69	-49.74
-24.11	-44.25
-18.01	-40.59
-13.73	-41.81
-14.34	-47.91
-19.53	-56.15
-25.33	-61.34
-27.47	-61.34
-23.8	-57.37
-15.56	-53.71
-5.49	-53.1
4.58	-53.71
11.9	-52.49
13.73	-50.05
8.85	-48.52
-0.61	-49.74
-10.38	-52.8
-17.09	-55.24
-20.14	-54.02
-20.14	-49.74
-18.92	-46.39
-15.56	-46.69
-10.38	-50.66
-4.27	-56.76
-0.31	-62.26
-1.83	-65
-9.46	-63.78
-18.92	-60.12
-23.5	-54.93
-18.62	-49.44
-5.49	-44.25
8.85	-40.89
18.01	-40.28
19.84	-41.5
15.87	-44.25
8.24	-47
-1.83	-49.13
-13.43	-50.66
-21.97	-50.35
-21.97	-46.69
-12.82	-41.2
-3.05	-38.45
-2.14	-43.03
-13.12	-56.15
-26.55	-70.5
-29.91	-76.6
-18.01	-70.8
0.92	-58.9
14.65	-49.74
15.87	-48.22
7.63	-50.66
-1.83	-51.27
-6.41	-46.39
-4.88	-37.23
-0.31	-29.3
4.88	-24.41
10.07	-21.06
15.26	-16.48
19.23	-7.63
21.97	4.88
23.5	19.23
25.02	32.65
29.3	41.2
37.23	43.03
47.3	38.45
56.46	30.21
64.09	23.8
71.11	21.06
77.82	20.14
80.57	15.56
74.46	3.97
58.9	-12.51
41.5	-26.25
32.65	-31.43
36.32	-27.77
47.61	-20.75
53.41	-18.01
44.86	-24.11
22.89	-37.23
-2.75	-53.71
-21.67	-68.36
-28.99	-76.9
-27.77	-78.74
-24.11	-75.68
-22.89	-71.41
-25.94	-68.97
-31.43	-69.27
-35.1	-70.5
-33.26	-69.27
-24.72	-64.39
-13.12	-57.37
-3.36	-50.05
3.66	-37.54
11.9	-11.6
28.69	35.4
55.54	103.45
90.64	184.02
136.72	265.2
206.91	338.44
321.96	397.64
492.55	432.74(R)
688.78	421.14
826.42	346.37
811.46	221.56
608.52	83.62
279.85	-22.58
-36.01	-72.02
-208.13	-75.68
-205.99	-65.92
-107.73	-65.31
-23.19	-73.85
-11.6	-82.7
-56.15	-86.67
-102.23	-87.59
-112.3	-90.03
-90.33	-93.38
-63.78	-94.91
-52.19	-92.16
-55.85	-88.5
-65.61	-88.5
-73.85	-92.77
-77.82	-98.57
-81.18	-103.15
-88.2	-105.29
-98.88	-104.98
-107.73	-102.54
-107.73	-98.88
-95.83	-94.3
-75.99	-89.72
-56.15	-85.45
-42.72	-81.79
-36.62	-79.35
-36.01	-78.74
-39.67	-79.04
-46.69	-79.35
-54.63	-79.65
-59.81	-79.65
-60.12	-80.26
-57.37	-81.48
-54.32	-82.4
-52.8	-81.18
-54.02	-78.13
-56.76	-75.07
-60.42	-75.07
-64.39	-77.82
-65.31	-80.87
-61.95	-80.26
-55.54	-74.77
-49.74	-68.05
-47.91	-64.09
-52.19	-64.7
-59.2	-67.44
-64.7	-67.14
-65.61	-61.65
-61.95	-53.71
-55.24	-47.61
-47	-45.78
-40.59	-46.69
-39.06	-46.69
-41.2	-43.03
-45.47	-36.93
-49.13	-31.13
-49.74	-25.94
-47.61	-21.06
-44.86	-16.48
-43.64	-11.9
-43.95	-7.32
-43.03	-1.83
-40.28	5.49
-36.93	13.73
-35.71	21.06
-37.54	25.94
-39.98	29.6
-39.67	34.48
-33.87	42.11
-24.11	52.19
-14.65	61.95
-10.68	68.05
-13.43	70.19
-19.84	69.89
-23.19	69.89
-20.14	71.11
-10.38	72.33
1.53	70.5
10.38	62.87
14.34	49.74
15.87	34.79
18.62	21.36
23.8	10.99
29.91	3.05
33.87	-4.27
31.74	-13.73
25.02	-24.11
18.31	-32.96
15.56	-38.76
19.23	-41.5
26.25	-43.95
30.82	-48.22
30.52	-54.02
26.25	-58.59
23.19	-59.81
23.8	-58.29
27.47	-55.85
29.91	-54.32
27.47	-54.93
21.06	-57.68
15.56	-60.42
17.09	-62.56
25.94	-63.17
37.84	-62.26
46.08	-60.42
47.91	-59.2
45.47	-57.68
43.03	-54.93
41.5	-52.8
39.06	-53.1
33.57	-57.07
25.94	-63.48
18.01	-68.97
12.51	-70.19
10.38	-66.83
10.07	-60.73
10.38	-54.63
11.29	-48.52
11.6	-41.5
13.73	-34.79
21.67	-35.4
40.59	-51.88
77.51	-87.28
131.23	-133.97
187.07	-176.7
220.64	-203.55
207.82	-216.06
140.69	-235.6
39.37	-286.87
-59.81	-378.72
-128.17	-498.66
-159.61	-614.32
-170.59	-694.27
-187.99	-722.96(R)
-229.19	-705.57
-289.92	-655.82
-349.73	-586.85
-383.61	-510.86
-374.15	-438.54
-321.96	-377.81
-245.36	-329.9
-169.98	-290.22
-116.27	-255.43
-91.25	-227.97
-89.42	-215.76
-97.05	-217.29
-97.05	-216.98
-78.74	-193.79
-43.33	-139.47
-3.66	-66.53
23.5	-1.53
29.3	34.79
18.92	37.84
4.58	20.75
-2.14	0.92
0	-11.6
7.63	-16.17
15.87	-16.48
22.28	-15.87
26.55	-12.21
32.65	0
43.64	23.19
60.12	54.63
76.6	85.75
83.01	107.42
72.94	115.05
50.05	111.08
26.55	103.15
14.65	99.18
17.09	102.23
28.99	110.17
40.59	119.63
47.91	126.95
50.66	132.45
51.57	137.02
51.57	143.13
50.05	151.06
47.3	160.83
44.86	171.2
44.25	181.58
46.39	191.65
50.66	202.03
54.93	213.32
58.59	226.75
59.81	242
59.2	258.79
59.51	278.02
64.39	300.29
75.99	326.23
93.38	354.61
110.78	381.77
119.93	403.44
117.49	419.01
108.34	431.82
100.71	447.69
102.84	470.28
115.66	499.57
132.75	529.17
146.48	553.59
155.33	570.68
162.96	581.36
173.95	586.85
187.68	587.16
198.67	580.14
200.5	564.58
193.79	542.3
185.55	516.05
184.02	488.28
189.51	458.37
196.23	424.19
198.06	386.66
194.7	346.98
189.82	308.84
187.07	274.05
185.85	242.61
181.58	214.54
172.42	188.6
160.52	164.79
148.93	141.91
138.24	119.02
127.56	96.13
116.58	75.68
104.37	57.37
90.64	40.28
75.07	22.89
56.76	4.88
37.54	-11.29
22.28	-22.58
15.26	-28.08
15.26	-31.13
17.7	-35.4
17.7	-42.11
12.82	-49.44
6.41	-54.02
3.36	-54.93
3.97	-53.1
4.88	-52.19
0.92	-53.41
-8.85	-55.85
-20.14	-58.29
-28.69	-59.2
-31.74	-59.51
-30.52	-60.42
-27.47	-61.34
-24.11	-59.81
-21.67	-56.15
-20.14	-51.27
-19.53	-48.22
-20.14	-49.74
-19.53	-54.93
-16.17	-59.81
-9.46	-62.26
-3.66	-61.65
-3.66	-61.65
-10.38	-63.78
-19.23	-66.22
-24.72	-67.44
-23.19	-66.83
-16.48	-65
-10.07	-65
-7.63	-67.44
-7.02	-69.58
-7.63	-70.19
-9.77	-70.8
-14.95	-72.94
-23.8	-77.51
-31.43	-80.87
-33.26	-80.26
-28.08	-75.99
-19.23	-71.11
-11.29	-68.97
-10.38	-71.41
-15.26	-76.9
-21.67	-82.09
-24.41	-84.84
-22.58	-85.45
-18.01	-83.92
-14.04	-80.57
-12.51	-75.99
-12.51	-70.8
-13.43	-68.05
-15.87	-69.58
-21.06	-75.07
-27.77	-82.7
-32.04	-88.5
-30.82	-89.72
-24.41	-86.98
-15.87	-81.48
-10.07	-75.38
-10.99	-72.02
-19.23	-72.02
-30.52	-75.38
-38.45	-78.74
-37.84	-79.96
-28.69	-77.51
-17.7	-73.55
-11.29	-70.8
-9.46	-68.97
-9.77	-69.27
-10.07	-71.72
-11.29	-77.21
-16.17	-84.84
-24.11	-90.33
-29.3	-89.42
-27.16	-82.09
-18.92	-72.94
-7.63	-67.14
2.75	-67.44
9.77	-72.02
12.51	-77.21
9.16	-81.18
-0.92	-84.84
-15.56	-88.2
-29.91	-90.33
-38.45	-90.33
-37.84	-86.98
-28.99	-80.87
-16.17	-75.07
-5.19	-71.41
-1.53	-71.11
-7.02	-73.24
-19.23	-76.29
-30.82	-78.43
-33.26	-79.04
-23.5	-78.43
-6.1	-76.9
9.77	-75.38
15.56	-74.16
11.29	-72.63
3.66	-70.5
-0.92	-68.36
-0.92	-68.36
0.31	-71.72
-0.92	-76.9
-4.27	-80.57
-8.54	-80.57
-11.29	-78.13
-13.43	-77.21
-14.34	-79.35
-14.04	-81.79
-13.12	-81.18
-13.73	-77.51
-15.87	-71.72
-16.17	-66.22
-11.9	-62.56
-3.05	-60.73
4.27	-62.26
3.97	-67.44
-4.58	-74.46
-14.95	-79.35
-19.23	-78.74
-14.34	-72.02
-3.66	-63.48
6.1	-57.68
10.07	-56.76
7.93	-60.73
2.75	-66.22
-3.66	-70.5
-9.46	-72.33
-15.87	-73.24
-21.97	-75.07
-24.72	-76.9
-22.58	-77.82
-16.48	-75.99
-7.63	-72.63
0.61	-69.58
6.41	-67.75
8.24	-67.14
5.49	-65.92
-1.22	-64.39
-8.85	-63.17
-13.73	-63.78
-14.04	-65.31
-10.68	-67.75
-6.41	-70.5
-3.05	-72.33
-2.14	-72.94
-4.58	-71.41
-9.77	-69.27
-13.73	-67.44
-12.51	-65.92
-5.8	-64.39
2.14	-62.56
5.49	-61.04
1.83	-61.65
-4.27	-64.39
-6.1	-68.05
-2.75	-69.89
1.83	-68.66
3.05	-65.92
0.31	-63.78
-2.75	-63.17
-3.36	-63.78
-2.44	-65.92    
-96.74	-81.48
-104.06	-95.21
-98.88	-100.71
-82.09	-94.3
-61.04	-79.35
-45.47	-63.48
-40.59	-54.32
-42.72	-53.1
-47.91	-58.9
-54.63	-68.97
-65	-79.96
-77.82	-88.81
-88.5	-92.77
-90.03	-90.64
-80.87	-83.92
-67.44	-75.99
-58.29	-70.19
-58.29	-66.22
-65.61	-64.09
-72.02	-63.17
-69.58	-62.26
-57.98	-61.34
-42.11	-59.81
-29.3	-57.68
-26.86	-55.85
-35.1	-55.85
-47	-56.76
-55.24	-56.15
-56.46	-53.1
-53.41	-47.61
-52.49	-42.11
-56.15	-38.15
-62.26	-35.1
-64.7	-32.04
-60.42	-28.38
-50.35	-24.41
-41.81	-21.06
-40.89	-18.62
-49.74	-17.09
-65.31	-16.78
-79.04	-15.56
-81.79	-10.38
-69.27	1.53
-48.83	17.7
-32.04	32.35
-28.38	40.28
-37.84	41.81
-49.74	41.81
-52.8	46.69
-44.86	56.76
-32.65	68.66
-23.19	77.21
-20.45	81.48
-22.89	83.92
-27.16	87.89
-31.74	93.08
-36.32	96.74
-38.76	96.74
-36.62	94.6
-28.38	93.38
-17.09	93.99
-7.32	93.99
0.31	91.25
7.93	86.06
17.4	79.65
27.16	72.94
32.65	62.26
30.82	45.47
22.58	22.58
14.04	1.53
11.6	-9.77
14.95	-9.77
18.92	-4.88
21.06	-3.05
20.45	-8.54
19.84	-18.92
23.19	-27.77
30.52	-31.43
36.62	-31.43
36.93	-31.43
32.65	-32.35
25.63	-34.18
19.23	-36.62
15.87	-39.37
14.95	-42.11
15.87	-43.03
20.14	-38.76
27.77	-29.6
34.79	-21.06
36.32	-19.53
32.35	-27.77
25.63	-42.11
19.53	-55.54
16.48	-62.87
14.95	-62.56
12.82	-60.12
9.46	-58.59
7.32	-58.29
6.41	-59.2
4.58	-61.34
-0.61	-64.09
-8.24	-66.53
-14.95	-67.44
-15.87	-63.48
-10.07	-54.63
-2.75	-46.08
-1.83	-43.03
-10.07	-46.69
-23.5	-53.41
-35.4	-56.76
-41.81	-53.71
-43.33	-45.78
-43.64	-38.45
-44.56	-35.71
-42.72	-37.23
-34.79	-39.06
-21.97	-37.54
-11.9	-34.48
-11.29	-32.96
-21.67	-34.79
-36.93	-39.06
-47.91	-42.42
-47.3	-41.2
-36.32	-37.23
-23.19	-34.79
-14.65	-36.32
-12.21	-39.67
-14.34	-42.72
-16.78	-44.86
-17.09	-46.08
-16.17	-47.91
-16.78	-49.74
-20.14	-50.35
-24.11	-48.83
-26.86	-47.3
-25.63	-47.3
-19.84	-48.52
-11.29	-48.83
-4.27	-47.61
-2.44	-45.78
-5.49	-44.86
-8.24	-45.17
-4.88	-45.78
6.1	-45.17
18.31	-42.72
21.97	-40.28
14.65	-39.67
3.05	-41.5
-4.58	-45.78
-3.66	-50.66
2.14	-53.1
3.36	-51.57
-3.05	-47.61
-13.12	-43.95
-20.14	-43.33
-21.97	-45.17
-19.84	-45.47
-18.01	-40.59
-17.4	-31.13
-15.26	-22.89
-8.85	-21.06
0	-26.86
5.19	-35.71
2.75	-41.5
-5.49	-39.37
-12.21	-30.52
-10.99	-18.92
-0.92	-10.07
12.82	-3.97
22.89	2.14
27.16	10.99
27.47	22.58
28.99	32.96
33.87	35.4
42.11	29.6
51.27	19.84
59.51	11.6
67.14	9.46
75.38	12.21
84.53	14.34
92.77	9.16
96.13	-5.19
90.64	-25.02
76.6	-42.11
58.29	-48.83
42.11	-45.47
29.6	-39.37
18.92	-38.45
6.1	-46.39
-9.77	-59.2
-24.72	-69.89
-31.74	-74.77
-28.38	-76.29
-18.62	-76.9
-9.16	-77.51
-6.1	-78.74
-11.9	-80.57
-23.8	-82.7
-35.1	-85.14
-39.37	-85.14
-32.65	-79.65
-17.4	-69.58
-0.31	-60.12
10.68	-54.32
14.04	-46.69
15.87	-25.33
25.94	20.45
52.19	89.72
99.18	171.51
172.12	252.69
276.18	326.23
415.34	389.4
585.02	431.82(R)
744.93	428.16
817.26	357.06
731.81	225.83
481.57	72.63
145.57	-48.83
-139.16	-104.68
-264.89	-100.71
-226.44	-69.89
-112	-45.78
-25.33	-41.5
-13.43	-52.8
-55.85	-68.05
-101.93	-79.04
-118.1	-82.4
-105.59	-79.96
-85.14	-75.38
-73.85	-73.55
-74.46	-76.29
-83.31	-81.48
-95.52	-86.06
-104.68	-86.67
-104.37	-83.62
-94.6	-78.43
-77.82	-72.63
-59.81	-66.83
-49.44	-62.87
-51.88	-62.26
-63.48	-63.17
-76.29	-62.87
-83.62	-60.73
-84.23	-58.9
-81.79	-60.73
-79.96	-66.22
-75.99	-69.58
-66.83	-65.61
-55.24	-56.76
-48.83	-49.44
-53.41	-50.05
-67.75	-57.98
-82.4	-66.22
-87.89	-68.97
-83.31	-65.61
-72.63	-60.12
-61.65	-54.93
-53.71	-50.05
-47.3	-43.64
-43.33	-36.62
-43.95	-32.04
-51.27	-32.65
-63.48	-37.84
-74.16	-43.64
-76.6	-43.95
-69.27	-37.54
-57.37	-26.55
-48.83	-17.09
-47	-12.82
-50.35	-12.51
-54.02	-12.21
-55.85	-9.46
-56.46	-4.58
-56.15	1.53
-55.24	8.24
-51.88	16.17
-46.69	25.94
-43.33	36.32
-45.78	44.86
-52.49	51.27
-56.46	58.9
-52.49	71.72
-43.03	87.59
-34.79	102.84
-32.96	113.53
-37.84	118.1
-42.42	119.32
-41.81	121.15
-37.84	124.21
-34.48	128.17
-31.43	133.67
-25.94	139.77
-16.78	143.74
-8.24	141.3
-4.88	130
-7.93	112.61
-12.82	93.99
-13.43	78.13
-6.71	64.39
2.75	50.66
9.77	36.32
11.9	23.8
10.38	16.78
8.54	16.17
9.46	19.53
11.6	21.36
10.68	18.01
3.36	9.77
-8.54	-0.61
-18.62	-7.93
-21.36	-10.99
-15.26	-10.38
-5.19	-7.93
2.14	-4.58
3.05	-1.83
-0.31	0
-4.88	-0.92
-8.85	-5.8
-12.82	-12.51
-17.4	-17.09
-20.45	-18.01
-18.62	-15.87
-11.29	-12.82
-3.97	-11.9
-3.97	-12.82
-14.34	-14.65
-30.82	-15.87
-43.64	-16.48
-42.72	-16.17
-25.02	-14.04
1.83	-8.54
24.11	-1.53
29.91	1.83
14.65	-3.05
-14.34	-16.78
-42.11	-32.04
-55.85	-39.67
-51.57	-35.71
-35.71	-23.8
-18.62	-11.6
-8.54	-4.58
-9.77	-3.36
-21.06	-5.49
-36.62	-6.71
-50.05	-6.1
-55.85	-4.58
-50.96	-2.75
-39.37	-2.14
-29.91	-2.75
-29.3	-4.27
-37.23	-4.27
-47.3	-1.53
-52.19	1.83
-48.22	3.36
-37.84	0.92
-27.77	-3.97
-23.19	-7.02
-25.94	-5.49
-32.96	-0.61
-39.98	3.97
-41.5	5.49
-34.79	5.19
-21.36	5.49
-9.77	5.49
-7.32	2.75
-16.48	-3.36
-31.74	-11.9
-43.03	-17.7
-43.64	-17.09
-34.79	-10.38
-24.11	-0.61
-18.92	6.71
-21.06	7.63
-28.08	1.53
-34.79	-7.93
-35.71	-14.65
-28.99	-13.12
-18.62	-4.27
-12.21	5.19
-13.73	8.85
-22.28	5.49
-32.04	-2.44
-35.4	-8.54
-30.52	-10.38
-21.97	-9.46
-14.65	-7.32
-10.99	-6.1
-11.29	-5.8
-12.82	-5.19
-13.12	-3.05
-12.21	0.31
-9.46	6.1
-4.88	13.43
0.61	19.23
5.8	23.19
8.54	26.86
7.93	32.04
5.49	40.28
4.58	50.35
6.71	58.9
11.29	64.39
18.31	68.66
28.08	74.46
41.2	80.57
57.07	83.92
71.72	80.57
80.26	68.66
79.04	49.13
68.05	26.55
52.49	7.02
39.06	-2.14
31.13	2.75
28.69	17.09
26.55	29.91
18.92	30.21
3.05	15.26
-17.4	-7.93
-34.79	-26.86
-42.72	-34.79
-41.81	-33.57
-37.84	-29.6
-36.62	-27.16
-40.59	-26.25
-44.56	-23.8
-43.33	-18.31
-37.84	-13.73
-33.87	-14.34
-35.4	-20.45
-42.72	-27.16
-50.35	-28.38
-50.96	-16.78
-40.89	11.9
-19.84	59.51
12.82	125.12
58.59	203.25
118.41	283.51
197.14	358.89
301.51	424.5
436.1	476.07
592.04	498.35(R)
723.57	465.09
756.23	366.21
634.77	222.78
372.92	82.09
64.7	-7.32
-160.22	-29.91
-226.14	-12.51
-161.74	6.41
-65	5.8
-21.06	-9.46
-47.3	-24.11
-103.15	-29.91
-138.24	-28.69
-133.67	-25.94
-104.37	-23.5
-75.38	-19.23
-61.04	-13.43
-61.04	-9.46
-68.36	-10.07
-78.13	-14.04
-88.81	-18.92
-98.88	-22.28
-105.9	-24.11
-106.2	-25.63
-97.66	-28.08
-83.62	-29.6
-71.41	-28.38
-66.83	-23.5
-68.36	-15.56
-69.89	-7.93
-68.05	-3.66
-65	-5.19
-65.31	-12.51
-71.72	-23.19
-80.87	-32.65
-87.28	-36.01
-87.59	-29.91
-82.7	-16.78
-77.51	-3.36
-76.6	2.75
-80.87	-0.92
-86.67	-10.38
-88.2	-17.4
-80.87	-15.56
-65.61	-6.1
-48.83	3.97
-38.15	8.54
-39.37	6.71
-51.57	2.44
-68.05	0.31
-81.18	1.22
-85.75	2.75
-82.7	3.05
-75.07	3.36
-66.22	7.63
-58.29	16.48
-52.19	26.25
-49.44	31.43
-51.88	28.69
-59.51	21.06
-69.89	14.34
-76.29	16.17
-74.16	29.6
-65.61	50.66
-57.68	71.72
-55.24	86.06
-57.37	93.69
-56.76	99.18
-49.74	107.42
-40.89	118.71
-36.93	129.39
-41.5	135.5
-49.74	137.02
-53.41	137.63
-48.52	140.99
-38.45	148.93
-27.77	159
-20.75	167.54
-18.92	169.98
-21.06	162.96
-24.72	147.09
-26.25	127.87
-22.89	109.56
-15.87	93.99
-10.38	79.96
-12.21	65.61
11.9	-0.61
-23.8	-26.86
-6.41	-30.52
7.63	-24.72
-16.78	-31.43
-22.58	-33.26
9.16	-22.89
-35.4	-35.4
-34.18	-40.89
-39.37	-42.42
-18.92	-45.17
-24.72	-37.54
11.9	-18.31
56.76	13.12
70.5	-38.45
-9.46	-76.29
-26.25	-95.83
65.31	107.12
802.92	183.72
14.95	-100.71
-63.17	-106.51
-72.33	-109.56
-69.89	-120.85
-69.89	-108.03
-61.65	-89.42
-66.83	-57.07
-31.13	25.02
-52.19	51.57
-7.32	7.32
11.9	-61.95
4.58	-95.52
26.25	-87.28
4.88	-86.06
-42.42	-101.93
-35.4	-108.95
-38.15	-74.16
-36.01	-68.05
-39.06	-60.73
-6.1	-61.04
-13.73	-87.28
-7.93	-88.81
15.87	-93.99
27.47	-100.4
77.82	-88.2
125.12	-113.83
24.11	-159
0.61	-190.43
96.44	-3.36
913.09	104.37
20.14	-219.73
-23.8	-215.76
-8.54	-215.15
-46.08	-238.04
-27.77	-219.12
-29.6	-211.18
-29.91	-187.07
-4.27	-106.2
-21.36	-56.46
18.92	-65
53.41	-154.72
44.86	-196.53
55.54	-205.69
71.72	-194.4
35.4	-213.32
35.1	-204.77
7.32	-201.72
9.16	-189.21
4.58	-183.72
12.82	-176.7
34.79	-172.42
12.21	-176.7
47	-148.01
58.29	-133.06
37.54	-144.96
69.27	-101.01
90.03	-128.17
29.6	-139.47
28.08	-144.65
62.56	-36.93
1033.33	55.85
6.71	-301.21
-8.85	-253.3
-37.54	-210.57
-23.5	-181.88
-31.13	-169.37
-12.21	-140.08
-32.65	-100.71
-32.65	-48.83
-30.52	23.8
10.07	59.2
62.26	-30.52
46.69	-83.92
111.39	-248.11
80.87	-148.62
45.78	-138.24
7.93	-93.38
453.19	-653.38(R)
-135.8	-448
-24.72	-34.18
-36.32	21.06
-38.76	47.61
-47.3	8.54
-5.8	164.18
-68.97	318.3
-71.72	477.91
-21.67	665.28
36.93	514.53
38.15	208.74
-3.05	88.2
-49.13	44.56
-55.24	58.29
-18.62	58.29
-33.57	28.08
-16.17	40.89
20.75	37.54
-27.77	18.92
-51.27	22.58
-48.22	35.4
-37.84	30.82
-17.7	35.4
-26.86	24.41
-15.87	28.08
-18.01	34.18
-21.97	25.02
-31.13	35.71
-19.84	52.8
-1.22	58.59
-6.71	62.56
1.83	60.42
18.62	67.44
4.27	66.83
4.27	74.16
-8.85	65.92
-5.19	62.87
-18.62	75.38
12.51	110.17
42.11	123.29
70.19	90.33
-38.15	32.04
-28.08	47.61
133.06	439.45
27.16	154.72
-106.81	16.48
-77.21	-7.02
-103.15	-26.25
-71.41	-4.58
-51.27	-4.58
-53.1	7.93
-32.35	60.12
-63.48	104.37
-22.58	166.93
-10.68	145.57
5.8	63.48
-14.95	18.62
-36.62	-11.6
-20.45	-13.73
-53.1	-14.95
-58.9	3.66
145.87	-150.15
-241.7	-767.82(R)
-254.52	-268.86
-42.72	-69.27
-10.68	52.8
43.95	159.91
-0.61	184.02
27.77	271.3
67.44	415.65
101.01	617.68
189.51	747.68
193.18	470.89
120.85	163.27
16.17	9.77
-27.16	-26.86
-35.4	-29.91
-59.2	-61.04
-31.74	-43.64
-47.61	-43.64
-47.3	-44.86
-66.22	-62.87
-24.72	-49.44
-27.77	-55.85
-47.91	-60.12
-43.03	-47.3
-26.86	-43.95
-50.05	-53.1
-42.72	-32.96
-28.38	-46.08
-23.5	-31.74
-14.04	-41.5
-17.7	-36.01
-11.29	-54.02
-33.26	-58.29
-8.54	-42.11
6.1	-18.31
29.91	12.51
60.42	-29.91
-30.21	-59.51
-36.32	-64.09
117.49	194.09
611.88	205.69
-62.26	-65
-113.22	-67.75
-89.42	-65.92
-75.99	-55.24
-56.15	-51.88
-74.77	-34.79
-43.95	-2.44
-33.87	64.39
-28.99	149.84
8.24	130.92
-15.56	50.66
-41.81	-29.6
-32.65	-53.1
-49.13	-50.05
-48.52	-28.99
-39.06	-12.51
-65.61	-30.52
-3.66	13.12
21.97	-403.44
-326.84	-601.2
-120.24	-158.39
21.67	65.31
0.61	96.44
-10.07	110.17
-35.1	154.42
-26.55	265.5
44.56	485.53
98.88	713.81
139.77	614.01
117.19	233.76
21.97	1.83
-69.27	-96.13
-52.8	-72.63
-75.07	-82.09
-89.42	-86.36
-92.16	-95.21
-77.82	-102.54
-84.53	-97.05
-81.18	-85.14
-57.07	-81.18
-61.34	-94.3
-88.81	-88.2
-57.98	-82.4
-55.85	-52.49
-56.76	-62.56
-46.08	-73.55
-54.02	-57.98
-60.73	-68.66
-34.18	-41.81
2.44	5.8
38.76	43.33
49.44	-10.07
-40.59	-72.33
-48.52	-61.65
173.95	333.86
11.9	-53.71
-138.55	-125.43
-98.88	-125.73
-79.65	-121.46
-87.59	-128.17
-70.8	-111.39
-70.8	-94.91
-62.26	-52.19
-47	16.48
-60.12	63.48
-1.22	53.41
7.32	-43.03
-17.7	-83.62
12.21	-75.38
-25.33	-92.47
-38.76	-97.05
-48.52	-69.89
41.5	-15.26
-56.46	-487.98
-369.87	-585.63(R)
-126.34	-270.08
-27.47	-75.38
13.73	61.65
20.75	96.74
-13.43	136.41
-6.41	227.36
60.12	458.68
138.85	643.62
159.91	445.86
114.14	104.37
44.25	-61.34
-16.48	-124.21
-32.96	-128.17
-33.87	-133.36
-43.64	-135.5
-30.52	-142.21
-21.36	-143.43
-50.96	-162.35
-39.67	-159.3
-39.67	-144.65
-25.33	-136.11
-10.38	-138.85
-14.65	-136.41
-28.08	-149.54
-19.23	-136.41
-46.39	-141.91
-26.55	-114.14
-29.6	-112.3
-23.8	-102.54
-18.31	-103.76
-19.84	-107.12
-8.85	-109.56
7.32	-93.69
49.74	-39.37
53.41	-99.18
-26.86	-120.85
-21.97	-119.63
96.74	127.56
937.19	239.56
2.14	-128.17
-100.4	-134.58
-119.93	-126.65
-52.49	-97.96
-69.27	-96.44
-85.45	-85.75
-75.99	-47.91
-52.8	0.61
-26.86	9.77
21.67	38.15
26.55	-19.84
12.51	-57.07
-13.73	-54.93
-12.21	-22.58
-29.6	-24.72
-63.48	-35.71
-51.57	-38.15
-2.75	-43.33
-13.12	-86.98
-6.1	-103.76
4.88	-107.73
27.47	-118.1
30.21	-119.93
-13.12	-134.28
54.63	-50.96
120.54	-38.15
-1.22	-101.62
-13.43	-123.6
14.34	-83.01
449.52	395.81
-256.96	-69.27
-84.23	-102.54
-80.26	-104.06
-101.62	-112.3
-58.59	-95.52
-73.85	-76.29
-59.2	-53.41
-46.08	-4.88
-37.54	63.78
-44.86	103.76
7.63	39.06
9.16	-11.6
-4.58	-32.65
-6.41	-35.1
-10.38	-32.65
-19.23	-47.91
125.73	-80.26
-115.05	-627.44(R)
-370.79	-348.82
-79.04	-158.69
-31.13	-6.1
40.28	162.35
3.36	160.52
-3.05	223.69
39.37	344.85
84.23	529.48
146.18	669.56
161.74	437.62
117.49	140.38
-9.77	-41.81
-83.92	-99.18
-102.84	-51.27
-125.12	-71.41
-71.11	-14.04
-97.35	-13.43
-190.43	-45.78
-109.56	16.17
-148.32	-29.91
-65.92	-44.86
-58.29	-55.54
-92.47	-110.17
-54.02	-72.63
-58.9	-53.1
-70.8	-131.84
-73.85	-171.51
-91.86	-179.75
-43.95	-133.36
-64.09	-75.99
-61.95	-54.93
-75.68	-54.63
-98.57	-72.02
-116.27	-91.25
-116.58	-96.13
-100.4	-81.18
-81.79	-57.07
-74.77	-37.84
-80.87	-28.99
-93.38	-29.3
-103.76	-34.48
-108.34	-40.59
-111.08	-47.3
-115.05	-54.02
-114.75	-57.07
-102.23	-51.88
-77.82	-39.37
-53.41	-26.86
-41.81	-21.67
-49.13	-28.08
-71.11	-44.56
-93.69	-62.56
-102.54	-71.41
-93.69	-67.14
-73.85	-54.93
-57.37	-44.86
-55.54	-46.69
-72.63	-62.26
-94.91	-80.26
-103.76	-83.62
-90.64	-67.14
-61.65	-35.71
-32.35	-1.83
-20.14	18.62
-26.25	20.14
-36.62	12.21
-36.32	5.8
-17.7	10.68
11.29	23.8
31.74	33.26
32.04	28.38
15.26	8.24
-5.8	-20.45
-20.75	-46.39
-27.47	-61.34
-33.87	-63.48
-45.47	-55.54
-58.9	-40.89
-69.27	-26.86
-72.02	-17.7
-63.78	-10.99
-50.35	-7.32
-46.39	-15.56
-62.87	-40.59
-100.1	-80.57
-143.13	-119.93
-164.79	-133.67
-148.32	-110.17
-106.81	-67.14
-70.19	-34.79
-59.51	-31.13
-84.84	-63.78
-81.18	-54.32
-57.37	-14.95
-23.19	47
12.21	121.15
48.83	199.28
93.08	276.18
150.76	349.12
227.66	417.18
332.34	477.6
470.28	520.32(R)
613.1	517.27
690.92	444.95
632.32	310.36
418.09	151.06
114.14	20.14
-151.98	-47.91
-275.27	-59.2
-245.97	-46.39
-143.13	-39.37
-63.17	-45.78
-47.91	-56.15
-77.82	-62.26
-109.86	-63.17
-118.71	-64.7
-114.14	-72.33
-114.14	-82.7
-120.85	-87.89
-125.43	-84.23
-121.77	-75.07
-113.83	-66.83
-110.78	-65.61
-117.8	-72.63
-131.53	-85.45
-143.74	-98.57
-146.79	-106.81
-137.33	-105.29
-119.93	-93.38
-105.29	-76.29
-102.23	-64.09
-112.61	-64.39
-128.48	-75.38
-136.11	-85.45
-126.04	-82.4
-99.18	-63.17
-65	-35.71
-38.76	-16.17
-34.18	-16.78
-52.8	-36.93
-85.14	-63.48
-112.92	-81.48
-122.38	-83.31
-110.47	-71.72
-88.81	-58.29
-71.41	-52.49
-65.92	-55.24
-73.24	-63.17
-86.06	-71.41
-93.69	-75.99
-90.94	-75.68
-77.21	-70.5
-58.29	-62.87
-40.89	-54.02
-29.3	-44.25
-22.89	-34.18
-21.36	-28.69
-24.72	-31.13
-32.35	-41.81
-40.28	-53.71
-42.42	-55.54
-34.79	-41.2
-20.75	-17.4
-7.63	3.05
-1.83	10.07
-5.19	2.14
-15.87	-15.26
-27.16	-31.74
-30.52	-37.23
-21.06	-28.99
-5.19	-11.9
7.63	4.58
9.77	12.21
2.44	9.16
-3.66	3.66
2.14	5.19
19.84	16.48
41.5	32.35
60.73	46.39
75.07	53.1
83.01	50.66
83.31	40.59
75.68	25.63
65	11.29
59.81	3.05
65.31	1.83
77.51	0
83.92	-11.6
77.21	-36.93
61.34	-66.53
49.13	-86.98
48.52	-90.64
57.68	-82.4
66.22	-75.99
65	-82.09
54.93	-98.88
43.64	-117.19
39.37	-125.73
44.86	-120.54
55.54	-107.12
63.17	-96.74
63.78	-97.05
56.15	-109.86
45.17	-129.39
38.15	-145.26
38.76	-151.06
47.61	-146.48
60.73	-135.5
71.72	-123.9
75.38	-117.19
70.5	-117.49
62.56	-121.77
58.59	-126.65
64.39	-128.48
76.6	-130.92
86.06	-137.02
89.72	-146.18
90.03	-152.28
90.94	-151.98
89.72	-149.84
77.82	-158.08
50.66	-184.02
19.23	-217.29
3.66	-236.82
15.26	-229.8
44.86	-204.47
70.8	-180.97
79.04	-173.34
74.16	-177
67.44	-179.14
66.83	-172.42
70.8	-160.83
73.24	-152.89
72.02	-152.89
66.83	-159.3
56.76	-167.54
39.98	-176.39
17.7	-183.11
0	-182.8
-5.8	-173.34
-3.66	-159.3
-3.66	-146.79
-10.99	-137.94
-20.14	-131.53
-17.7	-123.6
4.88	-113.53
39.67	-104.98
68.66	-100.71
76.6	-100.71
63.17	-103.15
42.11	-104.06
31.13	-100.71
37.84	-93.69
55.54	-86.67
69.89	-85.14
69.89	-95.21
54.02	-117.8
31.13	-147.09
12.51	-173.34
3.97	-188.6
6.71	-190.43
19.53	-180.66
38.45	-164.49
57.98	-148.62
72.33	-137.63
76.9	-134.89
70.5	-140.38
60.73	-149.54
55.54	-155.94
58.59	-155.03
66.22	-147.71
70.5	-139.47
66.53	-135.5
60.42	-134.28
64.7	-129.09
86.67	-114.75
121.15	-95.21
149.54	-82.7
155.64	-88.5
136.11	-112
105.9	-140.99
86.67	-158.39
89.72	-158.69
109.86	-151.06
130.62	-149.54
137.94	-160.52
130.92	-177.31
118.71	-187.38
109.56	-184.33
102.23	-174.26
92.16	-168.46
78.74	-171.81
65	-182.19
55.24	-194.4
50.35	-203.86
46.08	-209.05
42.42	-208.44
42.72	-201.72
48.22	-192.87
56.15	-187.38
59.81	-191.04
57.68	-202.03
53.71	-212.1
53.1	-213.93
55.54	-209.66
58.59	-203.55
61.65	-196.23
68.66	-180.36
84.84	-144.04
112	-81.79
144.35	1.22
176.09	88.81
212.71	169.07
273.13	240.17
377.81	306.09
535.89	367.13
726.62	403.44(R)
880.13	375.67
906.68	266.42
761.41	98.88
476.99	-72.63
163.88	-188.29
-50.05	-227.36
-105.9	-219.42
-47.3	-209.96
30.82	-218.81
59.2	-236.82
31.43	-247.19
-10.99	-242.92
-27.77	-231.93
-12.51	-225.52
12.82	-226.44
24.11	-229.19
14.95	-230.1
-3.66	-229.8
-17.4	-230.71
-18.92	-231.63
-8.54	-228.27
6.41	-219.73
17.7	-209.05
22.28	-199.58
20.45	-196.53
13.73	-200.81
5.8	-209.05
-1.53	-217.29
-6.41	-221.56
-7.32	-220.95
-4.58	-217.29
-0.31	-213.93
3.05	-213.01
3.66	-214.84
0.92	-218.2
-3.97	-220.64
-9.77	-222.17
-15.87	-224.91
-18.62	-227.97
-15.87	-227.66
-7.02	-222.47
3.97	-213.32
8.85	-205.99
2.44	-206.6
-11.29	-214.23
-21.36	-221.86
-18.92	-221.56
-4.58	-209.35
13.12	-190.73
23.8	-176.09
25.63	-171.81
19.84	-178.83
10.99	-191.96
3.66	-199.89
-0.31	-197.75
0	-188.29
5.8	-178.22
13.12	-173.03
19.53	-172.73
24.72	-169.68
27.77	-159
27.77	-143.13
23.19	-129.39
12.82	-124.21
-0.31	-126.04
-9.16	-127.26
-7.63	-119.63
2.14	-103.45
13.43	-86.06
18.01	-75.07
14.95	-71.11
9.77	-68.05
9.77	-60.12
18.01	-45.17
30.82	-28.69
39.67	-20.14
37.84	-23.19
26.55	-35.4
13.73	-48.22
9.77	-53.41
19.53	-48.83
38.45	-40.59
55.24	-38.15
61.65	-47
57.98	-65.92
52.8	-86.67
51.88	-102.84
56.15	-112.92
61.04	-118.41
62.56	-122.38
58.9	-127.56
52.19	-134.28
46.08	-141.91
41.5	-149.23
38.45	-155.94
37.84	-159.61
41.5	-157.17
48.52	-148.93
55.85	-138.55
57.68	-132.45
49.74	-136.11
33.57	-148.93
16.17	-163.88
6.71	-171.2
11.6	-166.32
28.38	-154.42
49.44	-144.35
65.92	-142.82
72.02	-150.15
66.22	-161.44
54.63	-170.59
44.56	-173.95
41.81	-170.29
47	-161.44
55.24	-152.28
61.04	-147.71
61.04	-150.15
54.93	-159.3
46.69	-170.9
39.06	-180.05
32.96	-186.46
28.38	-189.51
24.41	-189.21
21.67	-184.63
22.28	-177.31
26.25	-169.98
32.04	-165.41
35.71	-164.79
32.96	-167.85
25.33	-171.81
18.31	-174.56
16.17	-175.78
19.23	-175.48
24.41	-173.03
28.38	-170.9
30.52	-171.81
32.65	-178.22
35.1	-190.43
35.4	-203.86
31.13	-213.01
21.97	-214.23
13.12	-207.52
10.38	-195.31
14.95	-181.27
23.19	-168.46
28.38	-159.61
25.94	-156.56
17.09	-159.91
6.41	-166.63
-0.31	-173.34
-0.92	-176.39
3.05	-174.26
8.24	-169.07
12.21	-162.66
13.43	-157.47
12.82	-153.81
12.51	-151.37
14.04	-148.62
17.7	-145.87
21.97	-143.43
25.63	-142.52
27.16	-142.52
28.08	-141.91
29.91	-138.55
33.57	-132.75
37.23	-126.95
38.15	-124.21
35.4	-125.73
30.82	-129.39
27.47	-131.53
28.69	-129.39
33.26	-122.99
37.23	-115.36
37.23	-107.42
34.48	-99.79
31.43	-90.94
31.74	-80.26
36.62	-70.8
43.95	-65
52.49	-63.78
64.09	-62.87
80.26	-57.98
97.35	-50.05
107.12	-45.47
104.98	-50.96
93.08	-68.05
81.18	-89.72
78.13	-105.29
80.87	-111.39
78.13	-111.39
61.65	-110.78
35.1	-110.78
10.07	-110.47
-4.88	-109.86
-9.77	-112.3
-8.54	-120.24
-4.27	-131.23
5.19	-138.85
19.53	-139.47
30.82	-138.24
30.52	-141.91
18.92	-150.76
5.19	-158.08
0.31	-156.86
6.41	-146.18
17.09	-133.36
25.02	-125.43
29.6	-122.99
35.1	-118.41
45.78	-101.32
62.26	-63.17
83.92	0.31
112	87.89
146.18	187.68
188.29	281.98
247.5	354.31
340.27	398.25
486.45	421.14
678.71	422.36(R)
850.83	382.69
897.22	288.39
748.29	145.57
431.52	-7.32
74.77	-118.1
-165.1	-158.69
-212.4	-148.32
-118.71	-127.56
-3.66	-122.68
43.95	-133.36
15.26	-145.57
-40.28	-149.84
-72.63	-148.93
-68.66	-149.23
-47.91	-153.5
-32.04	-158.69
-27.47	-162.66
-29.3	-165.71
-32.96	-168.76
-35.4	-168.76
-34.79	-164.79
-30.82	-159
-25.63	-155.94
-22.89	-159
-24.11	-166.32
-28.69	-172.73
-33.26	-173.65
-34.18	-166.93
-29.6	-156.25
-23.5	-148.32
-19.84	-147.4
-21.36	-151.98
-27.16	-158.39
-32.65	-161.44
-34.48	-160.52
-32.35	-156.86
-27.16	-152.28
-21.97	-149.23
-19.53	-148.93
-21.67	-151.67
-28.38	-155.33
-37.54	-156.56
-45.47	-154.11
-48.52	-149.23
-46.69	-145.87
-41.2	-144.04
-30.82	-137.63
-14.65	-121.15
2.75	-99.18
10.38	-84.23
0	-86.98
-27.16	-107.42
-59.51	-135.5
-79.96	-155.33
-80.26	-158.39
-65.61	-145.87
-48.52	-124.21
-39.06	-101.62
-37.84	-85.14
-40.28	-76.6
-40.59	-72.02
-37.54	-66.53
-34.48	-56.46
-37.23	-43.95
-46.69	-34.18
-56.15	-27.16
-57.98	-17.7
-48.22	-0.31
-32.04	22.58
-20.75	41.81
-20.75	47.91
-30.82	40.89
-42.72	28.99
-47.91	24.11
-45.47	31.43
-39.06	47.61
-31.74	64.09
-25.33	74.16
-18.92	75.68
-13.43	69.58
-10.68	57.98
-11.9	44.86
-14.04	33.57
-13.12	25.33
-6.71	20.14
3.97	14.95
14.65	7.63
23.5	-1.83
29.91	-10.07
34.18	-13.73
35.4	-12.82
31.13	-13.12
19.84	-21.67
5.19	-40.28
-7.02	-63.78
-12.82	-83.92
-11.6	-93.99
-6.41	-94.91
-2.14	-92.77
-0.61	-91.55
-0.92	-90.33
-0.61	-85.75
1.83	-77.51
7.02	-68.36
12.21	-63.48
15.26	-63.78
14.34	-66.53
10.38	-69.58
7.02	-72.33
7.63	-75.38
13.73	-76.6
23.19	-74.46
28.38	-70.5
24.11	-69.58
10.99	-75.07
-4.27	-86.06
-11.9	-93.69
-6.41	-89.72
7.02	-76.9
16.17	-65.92
12.21	-67.14
-1.53	-79.65
-14.34	-93.69
-17.09	-97.66
-10.07	-89.11
-1.53	-75.07
-0.92	-64.39
-9.46	-62.26
-21.67	-66.53
-30.82	-72.33
-33.57	-75.38
-29.3	-72.63
-22.28	-65
-17.09	-56.76
-18.31	-53.71
-26.55	-59.51
-37.23	-71.41
-43.64	-82.7
-41.5	-86.36
-32.04	-79.65
-22.28	-66.83
-19.84	-55.54
-24.41	-50.96
-32.35	-52.19
-38.15	-56.15
-39.98	-59.2
-39.67	-59.51
-39.37	-55.85
-36.93	-48.22
-30.52	-37.84
-20.45	-28.99
-11.6	-25.63
-8.54	-28.99
-10.99	-34.18
-16.78	-36.32
-24.11	-34.79
-32.04	-32.04
-37.23	-29.91
-33.87	-26.86
-17.4	-20.45
8.54	-9.77
32.65	-0.31
42.42	3.05
35.4	-2.44
18.31	-13.12
0.61	-23.8
-12.51	-29.6
-21.36	-29.3
-27.16	-24.41
-28.69	-18.62
-24.11	-14.04
-14.65	-11.9
-4.27	-10.99
0.92	-11.9
-1.83	-14.04
-10.38	-17.4
-18.92	-19.84
-21.67	-19.23
-14.04	-13.12
1.53	-2.44
19.84	8.54
35.1	17.4
42.72	23.19
41.2	27.77
32.35	32.65
20.75	38.45
14.95	46.69
21.36	57.68
38.15	69.58
55.85	75.99
63.17	70.8
58.9	55.54
52.8	41.5
57.07	40.89
73.85	54.02
93.99	67.75
104.68	66.83
101.01	47.3
85.75	21.06
67.44	5.49
53.71	8.24
47	22.58
42.42	32.96
33.87	28.38
20.45	9.77
5.49	-11.29
-3.05	-22.89
-1.53	-21.36
6.71	-11.6
12.82	-3.36
10.99	-3.05
3.36	-9.77
-4.88	-17.09
-9.77	-20.75
-10.07	-19.23
-6.1	-14.65
0	-10.07
7.63	-5.8
18.92	3.36
36.01	25.94
57.37	66.53
79.04	124.21
97.96	193.18
113.22	266.11
134.89	337.52
183.41	407.71
279.54	473.33
433.65	530.4
634.77	567.32(R)
829.47	556.03
928.96	477.29
857.24	339.97
606.38	178.22
260.01	45.78
-39.67	-18.62
-180.05	-21.36
-153.2	-0.92
-46.08	8.85
34.48	-3.66
35.71	-28.99
-20.75	-52.8
-79.65	-66.83
-101.62	-69.89
-86.06	-63.17
-56.46	-49.13
-34.18	-34.18
-28.08	-25.33
-32.96	-25.33
-38.15	-28.08
-36.32	-28.08
-29.6	-26.55
-26.86	-30.82
-36.62	-46.69
-58.29	-69.58
-75.99	-84.53
-75.07	-79.65
-54.93	-57.37
-28.38	-31.74
-12.21	-18.62
-15.87	-24.72
-33.57	-43.64
-52.8	-61.65
-62.26	-68.97
-57.68	-62.56
-42.72	-47.91
-25.63	-33.87
-16.17	-29.6
-19.84	-38.15
-32.96	-54.02
-45.78	-65.31
-47.61	-62.56
-38.76	-48.22
-27.77	-33.26
-24.72	-28.38
-31.13	-33.87
-38.76	-40.89
-37.84	-39.06
-27.16	-27.47
-14.04	-13.73
-7.02	-4.88
-6.71	-1.53
-9.46	0.31
-11.29	4.88
-11.9	11.9
-12.51	18.31
-13.73	22.89
-13.43	26.55
-10.38	31.43
-6.1	37.84
-3.97	44.86
-5.49	51.57
-9.16	58.59
-11.29	66.53
-10.68	75.99
-6.71	86.67
-2.44	98.88
-0.61	111.08
-3.05	121.77
-8.24	129.39
-12.82	134.89
-12.51	140.38
-6.41	148.62
2.75	159.3
10.68	169.68
13.73	177.61
13.43	181.58
13.12	181.58
13.43	179.75
14.95	176.09
18.31	170.29
25.02	162.96
36.32	154.11
49.74	143.74
58.59	130.62
58.29	115.97
51.88	101.62
47	90.94
47.61	83.01
52.8	74.77
57.07	64.09
58.9	53.71
60.42	48.52
63.17	50.96
65	57.37
62.26	60.73
55.24	56.76

