-17.4	-44.86
-14.34	-40.28
-14.65	-37.23
-17.09	-37.54
-19.23	-41.2
-20.75	-49.13
-21.97	-58.9
-23.8	-65.61
-25.94	-64.7
-28.38	-54.63
-28.99	-39.67
-27.47	-28.38
-22.89	-26.86
-17.09	-33.87
-13.12	-42.72
-13.43	-46.08
-17.09	-42.72
-21.36	-36.32
-23.19	-32.96
-21.97	-33.26
-19.84	-32.65
-20.14	-27.16
-22.58	-16.78
-24.11	-9.16
-22.89	-11.9
-18.92	-26.86
-15.56	-45.17
-14.95	-54.02
-16.78	-48.22
-19.84	-33.26
-21.97	-22.58
-22.89	-23.8
-21.97	-30.82
-19.53	-33.26
-14.95	-26.25
-8.54	-12.51
-2.44	1.22
1.22	13.73
1.53	29.91
-0.61	50.96
-3.97	71.41
-6.71	84.84
-7.32	91.55
-4.88	98.27
-0.31	113.22
6.41	136.72
12.82	160.83
16.48	175.48
17.7	173.34
19.53	155.33
25.33	126.95
36.32	96.44
49.13	70.8
58.9	52.49
62.26	39.67
58.9	30.52
49.74	25.02
36.32	22.58
18.92	16.48
0.61	-1.83
-14.04	-33.57
-20.75	-68.66
-20.45	-89.11
-17.7	-84.23
-16.78	-59.51
-18.92	-35.71
-22.28	-29.3
-23.5	-41.81
-21.97	-61.04
-19.53	-72.33
-18.31	-70.5
-18.92	-61.65
-19.23	-54.63
-16.48	-51.88
-8.85	-47.61
4.88	-33.87
23.19	-7.63
44.25	26.86
66.22	64.39
88.5	105.59
108.64	151.98
119.32	198.06
114.14	230.71
97.05	237.12
86.67	219.42
111.69	195.31
187.07	187.99
298.46	213.93
406.19	273.44
472.11	350.65
483.7	422.97
457.46	470.89
423.28	484.92
399.17	469.36
384.52	440.37
367.43	408.02
338.44	372.62
300.6	330.51
264.28	283.2
238.04	234.07
223.69	187.99
216.06	143.43
208.13	91.86
196.23	25.63
178.83	-58.59
157.17	-159
134.89	-264.89
117.49	-357.36
110.47	-419.31
116.27	-444.34
130.92	-441.59
144.04	-428.16
144.96	-412.6
127.26	-390.01
91.55	-350.34
45.17	-290.83
-0.92	-223.08
-39.37	-166.02
-66.22	-130.62
-81.79	-114.14
-88.2	-105.59
-88.81	-97.05
-87.89	-87.59
-88.2	-83.01
-90.03	-85.45
-91.55	-91.25
-90.94	-93.69
-87.89	-89.11
-84.84	-79.65
-83.31	-71.11
-83.01	-68.97
-82.7	-74.16
-81.18	-83.31
-79.35	-89.42
-78.74	-87.89
-79.04	-77.82
-79.04	-64.39
-78.13	-55.24
-75.68	-55.54
-73.24	-62.87
-71.11	-70.8
-69.89	-73.24
-68.66	-69.27
-67.44	-63.17
-66.22	-58.9
-65.92	-57.98
-66.53	-58.9
-66.83	-59.2
-66.83	-59.81
-65.92	-60.73
-64.39	-62.56
-63.48	-64.39
-63.48	-65.92
-65	-69.27
-67.44	-75.38
-70.8	-83.01
-74.16	-89.42
-77.21	-92.47
-79.65	-92.47
-81.79	-91.86
-83.31	-92.16
-84.53	-92.16
-85.14	-90.33
-84.84	-87.28
-83.92	-85.14
-82.4	-85.14
-80.87	-86.06
-79.04	-83.92
-76.6	-75.99
-72.94	-63.48
-68.36	-49.13
-62.26	-36.62
-54.63	-26.55
-46.08	-18.01
-36.62	-9.16
-27.16	1.53
-18.01	12.82
-9.16	23.8
-1.53	32.65
3.97	40.28
7.32	47.3
8.54	55.24
9.77	63.78
10.99	71.41
12.82	76.9
13.73	79.65
13.12	79.04
11.9	76.29
10.38	71.72
9.46	66.53
9.16	61.04
7.93	55.54
5.49	50.66
2.14	47
-2.14	43.64
-6.1	40.59
-9.77	36.93
-12.82	32.35
-15.26	27.77
-17.09	24.72
-18.62	23.8
-19.23	25.33
-18.92	27.47
-18.31	29.3
-17.4	29.91
-17.4	29.6
-18.92	28.99
-21.67	28.38
-24.41	27.77
-26.86	26.25
-28.38	25.02
-29.3	24.11
-29.6	24.41
-29.91	25.63
-30.21	27.47
-30.52	30.21
-31.43	32.96
-32.65	35.4
-34.18	36.62
-35.71	36.62
-36.93	35.4
-37.84	33.87
-38.45	32.96
-39.06	32.96
-39.67	32.65
-39.67	31.13
-39.67	28.38
-39.98	24.11
-40.28	20.14
-40.59	17.09
-40.89	16.17
-41.2	16.78
-41.2	18.01
-41.5	18.92
-41.5	18.62
-41.5	17.7
-41.81	16.17
-43.03	14.34
-43.95	11.9
-43.95	9.77
-42.42	7.93
-40.59	7.02
-39.37	7.32
-38.76	8.54
-37.54	10.68
-35.1	14.65
-31.43	21.97
-28.08	33.57
-26.55	49.74
-27.47	68.36
-28.99	87.89
-29.6	106.2
-28.69	123.29
-26.25	139.16
-22.28	153.2
-17.7	163.27
-13.43	168.15
-10.99	166.32
-10.38	159.3
-9.16	148.62
-4.27	136.11
6.41	120.54
21.06	101.93
36.01	81.48
47	62.87
51.27	49.74
46.69	42.42
32.65	37.54
10.99	29.91
-12.51	16.17
-30.21	-3.05
-38.45	-22.89
-38.15	-37.23
-34.48	-43.33
-31.74	-42.42
-32.04	-38.45
-33.87	-35.4
-35.4	-35.1
-35.71	-36.32
-35.1	-37.54
-33.87	-37.84
-32.96	-37.54
-32.65	-36.93
-32.96	-36.32
-32.35	-35.1
-29.3	-31.13
-20.75	-22.28
-6.1	-6.41
14.04	17.09
37.23	48.22
61.95	85.75
85.45	126.95
103.76	163.27
109.56	183.72
101.32	179.75
88.5	151.67
95.21	112
145.87	79.96
245.67	69.58
369.57	87.89
477.6	128.78
538.33	177.61
549.62	215.76
534.36	229.8
519.41	216.98
517.58	188.29
521.24	159.61
514.22	139.77
487.67	124.51
445.56	104.06
402.22	71.41
373.23	28.69
365.6	-15.26
375.37	-55.24
391.24	-91.25
402.53	-126.34
404.66	-161.74
398.56	-193.48
386.96	-213.32
368.96	-215.76
342.71	-200.2
306.4	-173.34
260.62	-148.32
208.74	-136.72
152.89	-142.82
96.13	-158.39
41.81	-166.63
-6.1	-153.81
-45.47	-118.1
-76.29	-72.94
-99.79	-37.54
-116.88	-22.28
-126.95	-24.72
-130.31	-32.35
-129.39	-35.4
-127.26	-30.82
-126.04	-23.5
-126.04	-17.4
-125.73	-14.04
-123.9	-11.9
-122.38	-9.77
-122.99	-6.41
-126.65	-1.53
-131.53	6.41
-134.28	20.14
-131.84	40.28
-125.73	62.56
-119.63	78.13
-116.58	78.74
-116.88	61.34
-118.1	31.74
-118.41	1.53
-118.41	-18.92
-119.02	-25.94
-120.85	-22.58
-122.07	-13.43
-121.15	-2.44
-118.1	6.41
-114.75	11.9
-113.22	13.73
-114.75	11.6
-119.02	7.32
-124.51	3.05
-129.7	0
-133.36	-0.92
-134.89	1.22
-135.5	5.8
-136.11	10.99
-138.55	14.04
-143.74	14.34
-149.23	13.12
-152.59	14.65
-153.81	20.75
-153.2	29.6
-152.89	38.45
-152.59	44.56
-149.84	51.57
-144.35	61.95
-137.94	75.38
-132.14	86.98
-126.95	91.55
-119.63	88.5
-108.34	84.23
-93.69	88.5
-79.35	105.59
-67.75	130
-58.29	151.37
-49.44	161.13
-39.67	156.56
-30.21	142.52
-23.8	129.09
-21.97	122.99
-24.11	126.65
-26.86	135.5
-27.47	141.3
-24.11	136.72
-19.53	119.32
-16.48	93.69
-17.4	70.19
-22.58	56.46
-28.99	53.41
-34.18	56.15
-37.23	57.37
-38.45	50.96
-39.06	38.15
-41.2	22.58
-45.47	8.54
-50.96	0.61
-56.15	-0.92
-58.9	0.92
-58.9	2.14
-56.46	0.31
-53.71	-3.66
-52.49	-7.32
-53.71	-8.54
-56.15	-6.41
-58.59	-3.36
-60.42	-2.14
-61.34	-3.66
-61.34	-7.02
-61.65	-10.68
-62.26	-12.51
-61.34	-10.68
-59.81	-6.1
-57.98	-0.31
-56.76	4.88
-56.46	7.32
-57.07	5.19
-56.76	-0.31
-56.15	-5.8
-55.54	-6.71
-56.76	-1.22
-61.04	8.85
-67.75	21.06
-74.46	34.18
-77.82	48.52
-73.24	63.17
-58.9	71.41
-34.48	65.31
-1.53	36.62
36.62	-18.01
75.68	-98.88
112	-203.86
143.13	-328.67
168.15	-464.78
187.07	-601.5
200.2	-730.9
212.1	-848.69
228.27	-958.56
251.77	-1067.2
281.68	-1178.89
314.33	-1292.11
346.37	-1400.76
377.5	-1496.28
402.83	-1570.74
405.27	-1620.79
358.89	-1644.59(R)
246.28	-1643.37
76.9	-1620.48
-111.69	-1578.37
-272.52	-1515.81
-374.15	-1424.26
-415.34	-1294.25
-420.23	-1122.74
-419.01	-920.41
-426.94	-710.14
-437.01	-520.94
-433.04	-374.76
-404.97	-281.98
-361.02	-242.31
-323.79	-244.45
-310.97	-266.72
-317.99	-281.98
-321.35	-263.37
-298.46	-196.53
-245.06	-84.53
-176.39	53.41
-114.44	191.04
-72.02	303.65
-49.13	374.45
-38.15	400.39
-33.26	392.76
-32.65	373.84
-36.01	365.3
-41.2	376.28
-45.47	399.17
-46.69	420.53
-44.25	430.6
-40.59	429.99
-37.54	426.33
-36.32	426.33
-36.62	434.27
-37.54	448.91
-39.67	466.31
-42.11	480.35
-43.95	489.2
-44.86	495.61
-44.56	507.81
-43.33	530.4
-42.72	560
-43.64	585.94
-46.39	601.5
-50.66	609.44
-54.93	622.86
-56.46	655.21
-53.41	704.35
-48.22	754.09
-44.56	786.74
-45.17	798.65
-49.13	805.36
-53.41	828.86
-54.93	879.21
-54.02	944.52
-51.57	1001.28
-48.52	1034.24
-45.17	1046.75
-39.98	1056.21
-33.26	1080.02
-24.41	1119.69
-13.43	1158.75
0.31	1180.42
16.78	1179.2
33.87	1165.47
49.44	1152.95
63.48	1145.63
76.29	1134.95
90.64	1110.84
106.51	1071.78
122.38	1025.39
135.8	979.61
146.18	935.97
153.2	890.81
158.69	839.84
163.88	783.69
168.15	725.4
170.59	669.25
170.29	616.46
167.85	567.93
162.96	522.16
156.56	478.21
147.71	433.65
137.02	389.1
124.51	346.07
111.08	309.45
97.66	281.37
85.14	260.62
74.16	242.31
65.31	222.47
60.73	202.03
63.17	183.72
75.68	163.88
100.1	130.31
133.06	64.39
168.46	-47
197.75	-201.72
218.2	-387.88
232.54	-593.26
248.72	-809.94
271.91	-1033.33
297.85	-1253.97
318.3	-1458.44
331.73	-1634.83
348.82	-1777.95
380.55	-1891.17
423.89	-1979.37
449.22	-2040.71
416.26	-2070.62
305.48	-2064.21
135.19	-2020.57
-46.39	-1944.58
-189.51	-1842.65
-272.83	-1719.97
-308.23	-1574.4
-326.23	-1397.71
-350.65	-1183.78
-384.52	-943.3
-411.38	-711.06
-410.77	-532.23
-372.92	-437.93
-308.23	-420.53
-239.56	-435.79
-187.38	-432.74
-156.86	-384.22
-140.69	-298.16
-126.95	-201.11
-109.25	-111.08
-87.89	-25.94
-66.83	67.14
-51.57	173.03
-44.25	278.32
-44.56	360.41
-49.13	404.05
-53.1	413.21
-54.32	405.58
-53.1	399.48
-51.57	403.14
-52.49	414.12
-56.46	424.8
-61.65	431.82
-66.53	436.1
-70.19	441.59
-73.24	450.74
-76.6	462.34
-82.4	473.33
-91.25	481.87
-102.23	488.28
-112.92	495
-119.93	503.23
-119.63	513.61
-111.69	523.68
-97.96	533.45
-82.7	545.35
-69.27	565.49
-57.37	601.5
-45.78	658.57
-32.35	733.64
-18.31	814.51
-6.41	885.01
0.61	935.06
1.83	964.97
-1.22	985.72
-5.8	1009.52
-9.77	1040.65
-11.29	1074.83
-9.77	1104.43
-6.1	1123.96
-1.53	1134.64
3.66	1139.83
9.46	1141.05
16.48	1137.7
24.72	1127.32
34.18	1107.79
43.95	1080.02
54.02	1045.23
63.78	1006.16
73.24	962.83
81.48	916.44
87.59	866.09
91.86	812.99
94.6	757.75
96.44	701.9
97.35	646.67
97.66	592.65
95.52	540.47
90.94	490.11
84.84	442.81
78.13	398.25
71.41	356.75
64.39	317.69
57.37	280.76
50.05	246.58
43.33	215.15
38.15	186.46
33.26	160.22
28.38	136.41
23.19	114.44
18.31	94.6
14.34	75.99
11.29	59.51
8.54	44.56
6.1	32.04
3.36	21.36
0.61	12.82
-1.53	5.8
-2.44	-0.31
-2.44	-5.19
-1.22	-8.85
-0.61	-11.9
-0.92	-14.65
-1.83	-17.4
-3.36	-19.84
-4.27	-22.28
-4.58	-24.41
-4.27	-26.86
-3.66	-29.3
-2.75	-31.74
-2.14	-34.18
-2.14	-36.32
-2.75	-38.15
-4.27	-40.28
-5.8	-42.42
-7.63	-44.86
-8.24	-47.91
-8.24	-50.96
-7.93	-53.41
-7.32	-55.24
-7.02	-56.46
-7.63	-57.68
-8.85	-58.9
-10.38	-61.34
-12.21	-64.09
-13.73	-66.83
-14.95	-69.27
-15.87	-71.11
-16.17	-72.63
-16.48	-74.16
-17.09	-76.29
-18.31	-78.74
-19.53	-80.57
-20.45	-81.79
-20.75	-82.7
-21.06	-83.62
-21.67	-84.53
-22.58	-86.06
-23.5	-87.59
-24.72	-88.81
-25.33	-89.42
-25.33	-89.72
-25.33	-90.03
-25.63	-90.94
-26.25	-92.47
-27.77	-93.99
-29.6	-95.21
-32.04	-95.83
-33.87	-95.52
-34.79	-94.91
-34.48	-93.99
-33.57	-93.69
-33.26	-93.99
-34.18	-94.6
-35.71	-95.21
-36.93	-95.21
-37.23	-94.91
-36.32	-94.6
-34.79	-94.3
-33.26	-93.99
-32.35	-93.69
-32.96	-92.77
-34.48	-92.16
-36.32	-91.55
-37.23	-91.25
-36.93	-91.25
-36.01	-90.94
-35.4	-90.94
-36.01	-90.94
-37.54	-90.64
-38.45	-90.33
-38.15	-89.72
-36.93	-89.42
-36.62	-89.42
-37.84	-90.03
-39.67	-90.03
-40.59	-89.42
-39.98	-88.5
-37.54	-86.67
-34.48	-84.84
-32.35	-82.7
-31.13	-80.26
-31.43	-77.21
-32.96	-73.55
-35.1	-69.27
-36.93	-61.95
-37.54	-49.74
-36.01	-31.43
-33.26	-11.9
-30.52	0.61
-28.99	-3.05
-29.3	-25.63
-30.82	-60.42
-32.65	-92.16
-33.87	-108.03
-34.18	-104.68
-33.26	-88.2
-30.82	-71.41
-28.38	-64.39
-27.47	-68.05
-28.99	-76.6
-32.35	-83.01
-35.1	-84.23
-34.18	-82.4
-30.82	-82.4
-27.47	-86.67
-26.86	-93.38
-29.6	-97.96
-33.26	-97.35
-35.71	-91.25
-36.01	-82.7
-35.4	-75.07
-35.4	-69.89
-36.01	-66.53
-36.01	-63.48
-34.48	-59.51
-32.35	-55.24
-31.43	-52.19
-31.74	-52.49
-33.26	-57.68
-34.79	-67.14
-35.4	-75.68
-34.79	-77.82
-33.26	-70.8
-31.13	-59.2
-29.3	-51.88
-28.69	-54.93
-28.38	-66.22
-27.47	-75.38
-25.63	-74.46
-22.89	-63.78
-21.06	-52.19
-21.97	-48.22
-25.94	-52.49
-31.74	-59.2
-36.32	-62.56
-37.23	-62.87
-33.26	-63.48
-26.86	-67.44
-21.06	-72.94
-18.31	-76.29
-20.14	-74.77
-24.11	-70.19
-27.47	-65.31
-28.69	-62.26
-27.16	-61.34
-24.72	-61.04
-23.19	-58.9
-23.5	-53.71
-24.11	-45.78
-23.19	-39.37
-19.23	-38.76
-14.34	-45.47
-12.21	-56.76
-14.95	-66.22
-20.14	-66.83
-23.5	-57.68
-21.36	-41.81
-14.04	-22.89
-6.41	-3.36
-3.97	17.4
-7.32	38.76
-12.82	59.2
-15.87	76.9
-13.73	91.86
-7.32	104.98
0.61	119.02
7.32	133.97
11.6	146.79
13.73	151.98
15.87	145.26
20.45	125.12
28.69	97.35
40.89	71.11
54.02	54.93
64.7	47.91
69.58	40.59
65.61	23.8
51.57	-3.05
29.3	-30.52
4.58	-47.3
-16.17	-50.96
-26.55	-47.91
-25.94	-49.74
-20.14	-60.73
-14.04	-75.68
-11.9	-86.36
-14.34	-87.59
-18.92	-81.79
-22.58	-75.07
-23.8	-71.41
-23.19	-70.8
-22.58	-69.89
-22.58	-67.75
-21.97	-66.22
-17.4	-65.61
-6.41	-62.26
10.07	-50.66
28.99	-27.16
48.22	8.54
69.58	53.71
92.77	103.45
111.69	148.93
116.27	180.36
102.84	189.21
85.14	175.48
91.25	153.2
145.57	142.21
245.97	157.78
362.24	204.16
452.88	272.22
493.16	343.63
488.89	399.48
464.78	425.11
444.95	420.53
436.4	399.78
428.77	379.94
407.1	367.43
364.69	354
308.53	325.32
253.91	273.74
216.37	206.3
202.03	139.16
204.16	84.53
209.96	39.67
207.21	-7.02
191.04	-68.36
164.79	-148.62
136.11	-238.65
113.22	-320.74
102.54	-379.64
105.29	-409.24
116.88	-415.65
127.26	-408.94
125.43	-393.98
105.29	-368.96
67.44	-328.98
19.23	-275.57
-28.38	-217.9
-66.53	-168.15
-90.94	-134.58
-101.93	-117.49
-102.23	-109.56
-98.27	-105.29
-95.52	-103.45
-97.96	-106.81
-104.06	-116.27
-110.17	-126.34
-111.08	-129.09
-106.2	-118.1
-98.57	-96.13
-92.16	-75.99
-89.42	-68.66
-89.42	-78.43
-90.03	-97.66
-90.64	-114.75
-90.64	-118.41
-90.03	-107.73
-89.11	-91.55
-87.59	-81.48
-85.14	-83.31
-83.01	-93.08
-81.18	-100.71
-80.57	-97.35
-79.65	-84.53
-78.13	-72.94
-75.38	-72.63
-72.33	-84.53
-70.19	-100.1
-69.89	-109.56
-70.5	-108.03
-70.8	-98.57
-70.19	-87.89
-69.89	-82.09
-70.5	-82.09
-72.94	-86.67
-76.29	-92.77
-78.13	-98.88
-78.43	-103.45
-77.82	-106.81
-77.82	-109.86
-79.35	-113.53
-82.4	-116.88
-85.45	-117.49
-86.67	-113.22
-85.75	-104.06
-83.01	-93.08
-79.96	-83.01
-77.51	-75.99
-75.68	-72.63
-72.63	-72.02
-67.14	-71.72
-59.2	-69.27
-50.66	-62.87
-42.11	-50.66
-34.79	-34.18
-27.77	-16.17
-20.75	0.61
-13.12	14.34
-5.8	25.33
0	35.1
3.97	44.25
6.41	52.19
8.24	57.68
9.16	60.73
9.46	61.65
7.32	61.34
3.36	60.73
-1.53	59.81
-5.8	58.29
-9.16	55.54
-11.9	50.96
-15.26	44.86
-19.84	37.54
-25.02	30.52
-29.91	24.72
-33.26	20.14
-35.4	15.87
-37.23	11.6
-39.06	8.24
-41.2	6.41
-43.64	7.32
-45.47	9.46
-47.3	11.29
-48.52	11.6
-50.05	10.07
-51.27	6.71
-52.19	2.75
-52.8	0.31
-53.1	0
-53.41	1.53
-53.41	3.97
-53.71	6.1
-53.71	7.02
-53.41	7.63
-53.1	8.24
-52.8	9.77
-52.8	11.29
-53.41	12.51
-53.71	13.43
-53.71	13.73
-53.71	13.73
-53.71	13.73
-53.71	13.73
-54.02	13.43
-54.02	13.43
-53.71	14.04
-53.41	15.87
-51.57	19.53
-48.22	26.25
-43.95	36.01
-40.28	48.52
-39.06	63.17
-40.89	79.35
-43.95	96.13
-46.08	113.53
-45.17	130.31
-41.2	145.26
-35.4	157.17
-29.6	164.49
-25.33	166.63
-22.89	162.96
-21.67	154.11
-18.62	140.38
-12.21	121.77
-0.92	100.1
13.12	78.13
25.94	58.59
33.87	43.95
33.26	34.18
23.5	26.55
4.88	17.7
-17.4	4.88
-36.93	-11.9
-48.83	-29.6
-51.88	-43.95
-49.13	-51.88
-45.47	-53.1
-44.25	-50.35
-45.47	-47.91
-46.69	-47.3
-47.3	-48.83
-46.39	-49.74
-45.47	-49.74
-45.17	-47.91
-45.17	-46.08
-45.17	-44.86
-44.56	-43.95
-42.11	-42.11
-35.4	-36.62
-22.58	-25.02
-3.05	-5.19
20.45	22.28
45.78	57.37
70.8	97.96
92.16	137.94
103.15	167.54
99.49	177.61
85.75	162.96
80.87	132.45
112	102.54
193.79	90.03
312.5	104.06
430.91	142.82
510.86	193.18
538.02	237.12
526.73	259.09
505.37	252.69
493.77	225.52
493.16	194.09
489.81	170.59
471.19	155.33
436.4	139.16
394.59	112.3
360.41	73.55
345.15	29.6
349.12	-11.6
363.77	-47.91
378.11	-82.09
385.13	-117.19
383.3	-152.28
374.45	-180.97
359.8	-195.01
338.44	-191.04
308.23	-172.73
269.17	-151.98
222.47	-142.21
170.29	-151.06
115.05	-173.03
59.51	-191.65
8.85	-188.6
-33.26	-157.47
-66.53	-109.86
-92.16	-65.92
-110.78	-42.42
-122.99	-40.59
-128.48	-49.13
-128.17	-55.24
-125.43	-53.41
-123.29	-47
-123.29	-41.81
-124.82	-39.98
-126.65	-40.28
-127.87	-40.28
-128.48	-38.45
-128.17	-35.71
-127.87	-33.26
-127.26	-32.04
-126.65	-31.13
-126.04	-30.21
-125.12	-28.99
-123.9	-27.47
-122.68	-26.25
-121.77	-25.02
-121.15	-23.8
-120.54	-22.28
-119.63	-20.75
-118.71	-19.84
-118.1	-19.53
-118.1	-19.84
-117.8	-19.53
-117.8	-18.31
-117.8	-15.87
-118.41	-13.43
-119.63	-11.9
-122.38	-10.99
-125.43	-10.99
-129.09	-10.38
-133.06	-8.85
-136.72	-6.71
-140.08	-4.27
-143.13	-1.83
-146.18	0.61
-148.62	3.66
-151.37	7.93
-153.81	12.21
-155.94	16.78
-157.17	21.36
-157.47	26.86
-155.94	34.48
-152.89	44.25
-148.62	54.93
-143.13	65.61
-136.11	75.07
-127.87	83.92
-118.1	92.47
-107.73	101.32
-97.05	110.17
-86.98	118.41
-77.51	125.73
-68.97	131.23
-61.34	135.19
-54.32	137.63
-47.91	137.94
-42.11	136.41
-36.93	132.75
-32.65	126.65
-30.21	118.1
-28.99	107.12
-28.69	95.21
-28.69	82.7
-28.69	70.19
-29.3	58.29
-30.52	46.39
-33.26	35.1
-36.62	24.41
-39.67	15.26
-41.81	7.63
-42.72	1.53
-42.42	-3.36
-42.11	-7.63
-42.72	-11.29
-44.25	-14.34
-46.39	-16.48
-47.91	-18.01
-48.22	-18.92
-47.3	-19.23
-45.47	-19.23
-43.95	-19.23
-42.42	-19.23
-41.2	-19.23
-40.28	-19.23
-40.28	-18.62
-40.89	-17.09
-41.81	-14.65
-43.33	-11.29
-45.78	-5.49
-48.52	4.88
-50.96	21.97
-50.96	43.64
-46.08	61.95
-37.23	68.36
-27.77	57.68
-21.67	35.4
-20.45	13.12
-23.8	4.27
-29.3	13.73
-34.79	37.84
-38.45	69.27
-38.45	100.4
-33.57	125.12
-24.72	138.85
-16.17	140.08
-11.9	131.53
-12.82	119.02
-15.87	108.95
-14.95	101.62
-7.02	92.77
6.71	76.29
22.28	52.8
35.4	29.6
43.95	14.65
46.39	11.6
40.89	15.26
26.55	16.78
5.19	8.85
-18.01	-7.93
-36.01	-27.47
-43.95	-42.42
-43.33	-49.44
-38.45	-50.66
-35.4	-49.44
-36.01	-47.61
-38.76	-47
-40.59	-49.13
-39.98	-55.24
-36.93	-64.7
-33.57	-73.85
-31.43	-76.6
-31.74	-72.02
-34.18	-65.31
-36.62	-60.73
-36.32	-57.68
-28.69	-49.13
-12.51	-30.52
9.16	-2.44
32.65	28.99
55.85	61.04
78.13	95.52
95.83	130.62
102.54	158.39
95.52	167.54
84.53	153.5
95.21	125.12
154.42	100.1
265.2	92.47
398.86	110.78
510.25	156.56
565.8	222.47
565.8	290.22
537.72	335.08
513.61	338.44
507.51	304.87
508.73	259.4
498.05	226.44
464.48	212.1
414.12	200.5
362.55	173.34
326.23	126.34
312.81	74.77
316.16	32.96
322.88	2.75
320.43	-26.86
300.6	-68.66
264.59	-124.21
220.03	-182.19
177.92	-229.8
147.09	-262.45
132.45	-283.51
131.23	-299.38
133.97	-310.97
128.17	-312.5
105.29	-296.33
64.7	-260.01
14.65	-210.57
-33.26	-160.83
-71.41	-121.46
-97.66	-97.35
-112.92	-85.45
-119.32	-80.26
-118.41	-76.9
-113.22	-71.72
-107.73	-63.48
-104.37	-52.8
-104.37	-42.72
-105.59	-37.84
-106.51	-43.03
-106.51	-57.07
-105.9	-71.72
-104.37	-76.6
-102.23	-68.97
-99.49	-54.63
-96.74	-42.11
-94.91	-38.15
-94.6	-41.81
-95.21	-47.91
-95.21	-52.49
-93.99	-55.24
-92.47	-58.29
-90.94	-62.56
-89.42	-66.53
-88.2	-66.53
-86.36	-57.68
-84.84	-42.11
-84.23	-28.38
-84.84	-25.02
-86.36	-35.4
-88.2	-53.41
-89.42	-65.31
-89.72	-63.17
-89.72	-51.57
-90.94	-42.11
-93.38	-42.72
-95.52	-51.27
-96.74	-59.2
-96.44	-59.2
-96.13	-51.57
-97.66	-42.42
-99.79	-37.23
-100.71	-34.48
-97.96	-32.65
-92.16	-32.04
-85.14	-35.71
-78.43	-41.81
-72.02	-40.89
-66.22	-23.5
-61.65	10.07
-57.37	46.69
-52.19	67.14
-43.95	64.09
-32.65	48.52
-20.45	41.5
-10.99	56.76
-6.71	87.89
-6.41	115.97
-6.1	127.26
-3.97	123.9
-0.31	118.1
2.14	120.85
0.31	128.17
-6.71	128.17
-14.95	115.05
-21.06	94.3
-24.11	78.13
-26.55	70.5
-31.74	65
-41.2	54.32
-52.19	39.37
-59.2	27.47
-61.34	23.19
-60.42	21.36
-59.81	13.43
-61.04	-2.75
-63.48	-18.31
-66.22	-23.5
-69.27	-18.01
-72.94	-9.46
-75.68	-7.02
-76.29	-13.43
-75.68	-24.11
-75.07	-33.57
-75.99	-36.32
-77.51	-31.43
-78.43	-22.28
-79.04	-16.17
-79.96	-20.14
-81.48	-34.18
-82.09	-48.83
-79.96	-52.19
-74.46	-39.37
-68.66	-17.09
-65	4.27
-64.7	18.31
-67.14	27.16
-69.89	39.06
-71.41	58.9
-70.5	85.14
-67.75	112.61
-65	137.63
-63.48	160.22
-62.87	183.11
-61.04	207.52
-54.63	226.75
-39.98	230.41
-14.34	207.52
22.89	151.98
70.19	64.39
122.68	-49.13
171.81	-180.97
210.57	-322.57
233.15	-466.31
238.95	-606.38
232.24	-741.58
223.08	-877.08
219.73	-1019.9
225.83	-1172.49
239.26	-1328.43
258.79	-1471.86
284.73	-1586.91
318.3	-1669.92
348.51	-1730.96
347.6	-1784.06
284.73	-1834.41
148.32	-1871.34
-40.28	-1877.75(R)
-232.24	-1840.82
-381.47	-1756.9
-466.92	-1630.25
-498.66	-1466.37
-505.98	-1271.06
-514.22	-1051.64
-529.17	-826.42
-537.11	-620.73
-521.85	-459.59
-478.21	-358.28
-418.09	-315.86
-365.6	-314.03
-336.3	-323.49
-326.23	-313.72
-314.33	-265.2
-281.37	-174.26
-221.86	-53.1
-149.23	77.82
-83.62	196.84
-39.67	289.92
-18.62	350.65
-13.43	380.25
-14.95	386.35
-16.48	381.77
-14.95	378.72
-11.6	383.3
-7.63	394.59
-4.58	407.41
-2.14	416.87
0	422.36
2.44	426.33
4.58	431.82
6.1	439.45
6.41	448.91
6.41	459.59
7.02	471.19
8.54	484.62
10.07	499.88
11.9	517.27
12.82	535.89
13.73	555.11
13.73	574.95
13.73	595.7
13.43	618.29
13.12	643.31
13.12	671.08
13.43	700.68
13.43	731.81
13.43	764.16
13.43	797.73
13.43	832.52
13.43	868.23
13.73	904.24
14.65	939.94
16.48	974.43
20.14	1007.08
25.63	1037.29
32.96	1064.76
41.2	1088.56
50.35	1107.48
60.42	1120.91
70.8	1127.93
82.09	1128.23
93.99	1121.83
107.12	1109.62
121.15	1091.92
135.5	1068.42
149.23	1038.82
161.44	1003.72
172.12	963.44
181.58	919.19
189.51	871.28
195.62	821.23
199.58	769.96
200.81	718.38
198.97	666.5
195.01	615.54
189.82	565.49
183.11	516.97
174.87	469.97
164.79	424.8
153.5	381.47
141.3	340.58
129.09	302.43
117.19	267.03
104.68	234.99
91.25	205.08
77.51	177.61
64.39	151.67
52.19	127.26
41.5	104.68
32.04	84.23
22.89	65.92
13.73	50.35
5.19	36.93
-2.44	25.02
-9.16	14.65
-14.34	5.19
-18.62	-3.05
-21.97	-9.46
-24.41	-14.04
-26.55	-17.7
-28.38	-21.06
-29.91	-24.41
-31.43	-27.77
-32.35	-30.52
-33.26	-32.65
-33.57	-34.18
-33.57	-36.01
-32.96	-37.54
-31.43	-39.37
-29.91	-40.89
-28.69	-42.11
-28.69	-43.64
-29.6	-45.47
-30.52	-47.3
-31.13	-49.44
-30.82	-51.88
-30.82	-54.02
-31.13	-56.46
-32.35	-58.59
-33.57	-60.12
-34.18	-61.34
-34.48	-63.17
-34.18	-65.61
-34.48	-68.36
-35.1	-70.8
-36.01	-72.02
-36.62	-72.33
-37.23	-72.94
-37.54	-73.55
-38.15	-74.77
-39.37	-75.99
-40.89	-76.9
-41.81	-77.51
-41.81	-77.82
-40.89	-76.6
-38.76	-72.94
-36.01	-65.92
-32.96	-55.54
-30.82	-42.72
-31.43	-28.08
-34.79	-12.51
-39.67	3.05
-43.95	18.92
-45.47	35.4
-43.03	51.27
-37.84	65.31
-31.13	74.46
-26.25	76.29
-24.41	70.19
-24.41	58.29
-22.89	43.33
-16.48	27.16
-4.58	9.77
10.99	-7.63
25.63	-23.5
34.79	-35.71
35.71	-43.33
25.63	-48.22
6.1	-55.24
-17.7	-67.44
-38.15	-84.53
-49.74	-102.84
-51.88	-117.49
-49.44	-125.43
-47	-126.65
-47	-124.51
-48.52	-122.07
-50.05	-121.46
-50.66	-122.07
-50.66	-122.99
-49.74	-122.68
-48.83	-121.46
-47.91	-120.24
-47.61	-119.32
-47.91	-118.71
-47.3	-118.1
-44.25	-115.05
-36.01	-107.73
-21.36	-93.69
-1.83	-71.72
20.14	-41.5
42.11	-3.66
62.56	38.15
77.51	75.07
81.18	96.44
72.63	94.6
63.48	70.19
76.9	36.32
136.72	9.77
245.67	3.97
378.11	23.5
492.86	62.26
559.08	106.51
573.73	140.38
559.08	152.28
542.3	139.77
536.8	112.92
536.5	86.67
526.73	68.97
497.74	57.07
452.88	42.11
404.66	17.09
368.96	-16.78
353.09	-52.19
354	-83.62
361.02	-111.08
362.85	-137.63
355.22	-164.49
339.97	-189.51
320.43	-206.6
297.85	-210.27
271.3	-199.89
240.17	-181.58
203.86	-165.41
163.57	-162.05
119.02	-174.87
70.8	-196.84
21.06	-213.01
-26.25	-209.96
-66.22	-185.24
-98.27	-149.54
-122.38	-119.63
-138.24	-105.29
-146.18	-104.98
-147.09	-108.34
-145.26	-107.12
-144.96	-99.49
-147.4	-87.59
-151.37	-73.85
-153.81	-58.9
-154.11	-43.64
-152.28	-31.74
-149.23	-29.91
-144.96	-42.72
-140.69	-68.36
-137.33	-98.27
-137.63	-120.85
-141.3	-128.17
-145.57	-119.93
-147.4	-102.84
-145.87	-87.28
-143.13	-80.87
-140.69	-84.84
-139.77	-94.6
-139.47	-103.45
-138.24	-105.29
-135.5	-100.1
-133.67	-94.3
-133.36	-94.6
-135.19	-104.37
-138.24	-118.71
-141.3	-127.26
-144.04	-123.9
-145.26	-111.39
-145.57	-97.96
-147.4	-92.16
-152.59	-93.08
-161.44	-95.21
-170.9	-92.77
-176.7	-86.06
-177	-80.26
-172.42	-79.04
-167.54	-83.92
-166.02	-91.25
-167.24	-96.44
-168.76	-96.13
-168.46	-89.11
-164.79	-77.21
-159.61	-63.78
-154.11	-53.41
-148.01	-46.39
-138.85	-40.28
-126.04	-32.96
-112.61	-24.41
-101.32	-14.65
-94.6	-5.19
-90.33	4.58
-84.23	13.12
-74.77	16.78
-64.39	15.26
-56.15	13.12
-50.96	17.4
-47.3	29.3
-44.25	41.81
-43.03	45.47
-44.25	37.23
-47.91	22.28
-52.19	9.77
-54.63	4.58
-54.93	4.27
-54.02	3.05
-52.8	-3.97
-51.88	-16.78
-52.19	-30.52
-54.63	-38.15
-60.12	-37.84
-67.75	-32.96
-74.77	-32.35
-78.74	-41.2
-79.65	-56.76
-79.35	-70.19
-79.96	-74.77
-82.09	-72.63
-84.23	-70.19
-84.23	-68.97
-80.57	-64.39
-74.77	-52.49
-68.66	-32.96
-64.7	-12.21
-64.39	3.66
-66.83	12.82
-70.19	20.14
-72.02	30.21
-71.72	46.39
-70.8	67.44
-69.27	90.03
-65.31	110.17
-57.68	122.99
-47.3	128.17
-38.15	129.39
-34.79	129.7
-36.32	129.39
-36.62	123.9
-29.91	108.34
-15.87	81.18
0	48.83
9.46	21.97
6.71	7.02
-7.02	1.53
-26.55	-4.88
-45.47	-22.89
-59.81	-53.71
-67.75	-86.98
-70.8	-106.2
-70.8	-102.54
-71.11	-83.62
-72.94	-67.14
138.85	-382.08
165.71	-519.71
181.27	-654.6
185.24	-778.5
180.97	-886.84
174.56	-984.5
170.59	-1085.82
170.29	-1205.14
170.9	-1345.52
168.46	-1491.7
160.83	-1619.57
149.54	-1712.04
128.48	-1765.14
84.53	-1783.75
2.44	-1775.82
-120.24	-1744.69
-263.67	-1686.1
-390.63	-1591.19
-469.36	-1451.42
-495.3	-1269.84
-491.33	-1066.89
-484.01	-871.28(R)
-483.09	-707.4
-477.29	-582.89
-448	-492.86
-390.32	-430.6
-320.43	-393.07
-263.67	-375.67
-235.29	-364.99
-228.27	-343.32
-221.25	-297.55
-193.18	-222.17
-137.94	-121.77
-68.97	-5.19
-7.93	113.53
28.08	216.06
36.93	282.59
30.52	309.14
23.5	307.92
23.5	300.29
28.38	299.38
31.74	304.87
27.77	308.84
17.4	309.45
6.1	311.89
-1.53	320.13
-4.58	330.2
-5.8	333.56
-10.07	326.84
-18.92	315.55
-29.91	309.14
-36.62	310.67
-32.96	317.69
-16.48	324.4
7.02	329.28
30.52	337.52
48.22	356.14
60.42	392.15
71.11	446.47
83.01	512.08
95.52	574.34
103.76	618.29
105.9	638.43
101.32	643.62
93.69	650.63
87.28	671.39
84.53	705.57
85.45	744.32
89.42	779.42
94.3	810.24
98.27	844.42
102.23	886.23
106.81	928.34
112	956.42
118.71	962.22
126.65	953.98
136.41	949.71
148.01	961.91
160.83	985.72
172.42	1003.42(R)
182.19	998.84
191.35	971.37
200.81	932.62
210.88	893.86
219.73	856.02
225.52	815.73
227.97	770.87
229.19	723.88
229.49	681.46
228.27	643.92
224.3	603.64
217.59	552.98
208.44	492.55
198.67	432.43
189.51	384.52
180.66	351.26
172.12	322.57
162.66	285.03
150.45	237.12
135.19	189.51
117.49	153.81
100.4	133.36
86.67	121.15
76.29	107.42
67.14	88.2
57.98	66.83
49.74	47
43.64	29.3
40.89	11.6
38.15	-5.8
32.65	-21.36
23.19	-32.96
13.43	-39.06
6.71	-40.28
5.49	-41.5
6.71	-47.3
7.32	-57.37
6.41	-68.05
4.58	-76.6
2.14	-81.18
-0.31	-80.57
-2.75	-75.99
-4.27	-70.5
-3.97	-66.83
-2.14	-68.05
-0.92	-75.38
-2.44	-86.36
-5.8	-95.21
-9.77	-97.35
-12.51	-93.69
-13.73	-88.2
-13.43	-84.84
-12.82	-85.45
-13.12	-89.11
-14.65	-92.47
-17.4	-93.99
-20.45	-94.91
-22.28	-97.66
-23.19	-104.06
-23.19	-112
-23.8	-116.88
-24.41	-115.36
-25.63	-110.17
-25.94	-105.9
-25.63	-106.51
-24.72	-112
-24.11	-118.41
-24.41	-122.68
-25.94	-123.29
-28.38	-120.85
-30.82	-116.27
-32.96	-109.86
-33.87	-104.37
-33.87	-103.45
-33.26	-108.03
-32.35	-115.05
-32.04	-120.54
-33.26	-121.15
-35.1	-117.49
-36.32	-113.22
-36.01	-111.08
-34.79	-110.78
-34.18	-111.69
-34.48	-113.22
-35.4	-114.75
-36.32	-114.44
-36.93	-111.69
-36.62	-106.81
-36.01	-103.76
-35.4	-105.59
-34.79	-113.22
-33.87	-122.07
-32.65	-126.34
-32.35	-123.29
-32.65	-115.36
-33.26	-107.73
-33.87	-104.37
-33.87	-104.68
-32.96	-104.98
-31.74	-102.84
-30.52	-97.66
-29.91	-92.47
-29.91	-89.72
-30.82	-90.64
-32.04	-93.38
-32.96	-96.74
-33.26	-98.57
-32.35	-99.49
-30.82	-99.49
-28.99	-99.79
-28.08	-100.71
-27.77	-101.93
-28.08	-102.84
-28.69	-101.93
-29.3	-99.18
-29.6	-95.52
-28.99	-92.16
-28.38	-90.64
-28.08	-91.55
-28.38	-93.69
-29.3	-95.52
-29.91	-96.13
-29.91	-95.52
-29.6	-94.3
-28.99	-93.38
-28.38	-92.47
-28.08	-91.25
-27.16	-89.72
-25.94	-88.5
-24.72	-87.59
-23.8	-86.98
-24.11	-86.06
-24.72	-84.84
-25.33	-83.62
-25.33	-82.7
-25.02	-83.01
-25.33	-83.31
-26.25	-83.31
-27.16	-82.4
-26.55	-80.87
-24.72	-79.35
-21.97	-77.82
-19.53	-76.9
-18.92	-75.99
-19.23	-75.07
-19.53	-73.24
-19.53	-71.72
-18.92	-70.5
-18.92	-69.89
-19.84	-70.5
-21.06	-71.11
-21.97	-70.8
-22.28	-69.58
-21.67	-67.75
-20.45	-65.92
-19.23	-64.7
-18.31	-64.09
-17.7	-63.17
-17.7	-62.56
-18.31	-61.95
-19.53	-61.65
-20.45	-61.65
-20.75	-61.65
-20.45	-61.34
-20.45	-61.04
-20.75	-60.73
-21.36	-60.12
-21.97	-59.51
-21.67	-58.59
-20.75	-57.68
-20.14	-56.76
-20.14	-55.85
-21.06	-54.93
-21.97	-54.32
-21.97	-53.71
-21.06	-53.71
-19.53	-54.02
-18.31	-54.63
-18.01	-54.63
-18.92	-54.02
-19.84	-52.49
-20.45	-50.96
-20.75	-49.74
-20.75	-49.13
-20.45	-49.13
-20.14	-49.13
-19.53	-49.13
-19.53	-49.44
-19.84	-49.74
-20.75	-50.35
-21.67	-50.35
-21.67	-49.74
-20.75	-48.52
-18.92	-47.91
-18.01	-48.22
-18.01	-48.83
-18.92	-49.44
-19.84	-49.13
-19.84	-48.52
-19.23	-47.91
-18.31	-47.91
-18.01	-48.22
-18.31	-49.13
-18.92	-49.44
-19.53	-49.44
-20.14	-48.83
-20.14	-48.52
-20.14	-47.91
-19.53	-47.3
-18.31	-46.69
-17.4	-45.78
-16.78	-45.17
-17.09	-44.86
-17.7	-45.47
-18.62	-46.39
-19.53	-47
-19.84	-46.69
-20.14	-46.08
-20.14	-45.17
-20.14	-44.56
-20.14	-43.95
-19.53	-43.64
-19.23	-43.64
-19.23	-44.25
-20.14	-45.17
-21.67	-46.39
-22.28	-47
-21.36	-46.69
-19.23	-46.08
-17.09	-45.47
-15.87	-45.47
-16.48	-46.08
-18.62	-46.69
-20.75	-47
-21.67	-47
-21.36	-47
-19.84	-47.3
-18.92	-48.22
-18.92	-49.74
-19.84	-50.66
-21.06	-50.66
-21.06	-49.13
-18.92	-45.47
-14.95	-39.67
-9.77	-31.43
-4.27	-20.75
1.53	-7.93
7.63	7.32
13.12	23.19
17.7	37.54
22.28	47.61
26.86	53.1
31.13	55.24
34.48	55.85
36.01	56.76
36.01	57.07
35.1	55.54
33.26	49.44
31.13	38.76
28.69	26.55
27.47	15.56
29.91	8.24
37.54	4.27
50.05	3.05
63.17	3.05
69.89	3.66
64.7	3.66
45.17	0.61
16.48	-8.54
-11.29	-24.72
-28.08	-43.64
-31.43	-59.81
-25.94	-68.05
-19.53	-67.75
-16.78	-62.56
-18.31	-57.68
-21.67	-55.54
-24.41	-55.85
-26.55	-56.15
-28.08	-52.19
-29.3	-41.5
-29.3	-23.19
-27.47	-0.31
-23.8	19.53
-16.48	28.69
-4.27	23.19
11.9	8.85
29.3	-2.75
47	2.14
65	30.82
82.4	77.21
94.91	124.82
96.13	153.81
84.84	151.67
75.68	121.77
95.83	83.92
166.32	62.56
281.68	74.77
408.63	121.15
505.98	186.16
549.93	246.58
549.01	284.12
530.09	292.97(R)
515.75	279.24
510.25	256.04
503.23	234.07
483.09	214.54
446.47	190.43
402.22	153.5
364.69	102.84
346.37	45.17
349.43	-9.46
365.6	-52.8
378.42	-84.23
372.92	-112.61
344.85	-145.26
301.82	-183.72
256.04	-221.56
218.51	-249.33
192.26	-259.7
173.95	-256.96
155.64	-250.85
130.31	-248.41
94.3	-246.28
48.52	-233.76
-0.31	-202.94
-43.95	-158.08
-77.51	-115.97
-100.1	-92.77
-113.53	-90.03
-119.93	-95.52
-121.15	-93.99
-119.32	-81.18
-116.88	-66.22
-115.05	-61.65
-115.36	-70.8
-116.58	-83.92
-117.19	-88.5
-114.75	-78.13
-109.86	-60.42
-103.76	-47.61
-98.57	-47.61
-96.74	-59.2
-97.35	-73.85
-97.96	-84.23
-97.05	-87.59
-95.21	-85.14
-93.08	-78.13
-90.94	-69.27
-88.81	-61.34
-86.06	-55.24
-83.92	-50.96
-84.53	-48.52
-88.2	-49.74
-92.16	-55.85
-94.3	-65.31
-93.38	-72.63
-90.33	-72.33
-86.36	-64.7
-83.01	-54.63
-80.26	-48.83
-79.04	-50.05
-80.26	-57.68
-83.92	-68.97
-90.33	-81.48
-97.05	-92.16
-101.62	-94.91
-101.01	-87.89
-95.21	-76.6
-88.2	-69.58
-84.53	-70.8
-86.67	-78.13
-93.38	-84.53
-99.79	-85.14
-102.23	-82.7
-101.01	-82.4
-97.66	-85.75
-92.77	-89.11
-85.45	-88.2
-75.38	-80.26
-64.7	-66.83
-57.07	-50.96
-52.8	-35.4
-49.74	-21.06
-45.17	-7.93
-38.15	4.88
-29.3	18.31
-22.28	28.99
-18.31	34.18
-15.87	33.57
-13.12	31.74
-11.6	33.26
-11.9	41.81
-14.95	54.02
-19.84	64.09
-24.11	66.22
-25.94	59.81
-26.25	47.61
-27.77	32.96
-32.04	18.62
-39.06	6.1
-47.3	-2.75
-55.24	-6.1
-61.65	-2.44
-64.7	4.58
-63.17	8.85
-58.59	4.27
-54.63	-10.38
-54.93	-26.25
-60.73	-33.57
-69.58	-29.3
-75.68	-18.31
-76.29	-9.77
-74.16	-11.29
-71.11	-19.84
-69.58	-27.47
-70.19	-29.91
-71.72	-29.3
-73.24	-29.3
-73.85	-29.91
-73.55	-29.91
-73.24	-26.86
-73.85	-22.28
-76.9	-18.92
-81.18	-17.7
-84.23	-17.4
-82.7	-16.17
-75.68	-14.34
-65.61	-13.43
-57.68	-15.26
-56.15	-20.45
-61.65	-27.47
-69.27	-32.96
-72.94	-33.57
-70.5	-27.47
-65	-20.14
-63.17	-17.7
-66.22	-20.14
-71.11	-21.67
-74.16	-18.92
-73.55	-15.56
-70.19	-19.23
-66.53	-31.13
-62.56	-42.42
-58.9	-44.56
-58.9	-37.84
-64.09	-30.52
-72.33	-30.21
-78.43	-35.1
-75.99	-37.23
-65.61	-32.65
-54.63	-27.16
-51.57	-28.38
-58.59	-37.84
-71.41	-49.74
-80.26	-56.46
-78.13	-55.24
-65.61	-48.52
-50.96	-41.2
-42.42	-37.54
-42.72	-36.93
-48.52	-36.62
-55.85	-34.79
-64.09	-33.26
-73.55	-33.87
-84.23	-38.45
-91.55	-44.25
-89.11	-47
-77.21	-43.95
-61.34	-36.93
-49.13	-30.52
-46.39	-27.16
-51.88	-25.94
-60.42	-25.02
-65.92	-24.72
-67.14	-25.94
-64.39	-28.99
-61.04	-31.43
-58.9	-31.43
-59.2	-28.69
-61.65	-25.63
-64.09	-24.11
-63.48	-23.5
-58.9	-20.45
-50.96	-11.6
-43.03	2.14
-39.06	18.92
-37.84	37.23
-36.01	55.54
-29.3	72.33
-19.53	83.62
-12.82	87.28
-13.73	84.23
-19.84	78.74
-24.72	76.29
-23.8	78.74
-18.31	83.92
-14.04	86.67
-13.43	85.14
-14.04	80.26
-7.63	75.68
9.77	73.85
32.04	75.38
47.61	77.21
45.47	75.38
24.11	67.14
-6.71	52.8
-33.57	33.87
-48.83	13.73
-54.32	-5.8
-56.76	-20.75
-61.04	-29.3
-66.22	-30.21
-68.66	-25.94
-66.83	-20.75
-62.56	-18.01
-58.59	-19.23
-56.46	-22.58
-54.93	-25.94
-52.8	-28.99
-50.35	-32.04
-49.74	-34.79
-51.57	-36.01
-54.63	-34.79
-54.63	-30.21
-48.83	-21.97
-36.32	-10.68
-19.23	3.66
0.61	22.58
22.28	47
46.69	79.65
71.72	119.63
90.33	159.91
93.69	189.51
79.96	200.5
63.17	194.4
71.11	185.24
126.34	190.43
227.66	221.86
344.85	278.93
437.32	349.12
480.04	413.51
478.21	456.85
456.54	472.11(R)
439.45	463.87
433.96	444.95
431.21	425.11
418.7	404.66
391.54	376.89
355.83	336
323.79	284.73
304.57	232.54
298.77	188.29
298.77	152.59
295.72	119.02
283.81	80.87
263.67	37.54
237.43	-5.19
208.13	-38.76
178.22	-59.81
151.67	-71.41
131.23	-83.92
115.36	-107.12
97.66	-143.74
71.72	-183.11
37.54	-205.69
1.22	-196.53
-28.69	-156.86
-49.13	-105.9
-62.87	-66.53
-72.94	-51.88
-79.35	-57.37
-81.48	-67.75
-79.96	-71.41
-77.21	-66.53
-76.29	-59.2
-77.51	-54.63
-79.35	-54.02
-80.26	-54.93
-79.96	-55.24
-79.04	-53.71
-76.9	-50.66
-73.24	-46.69
-69.27	-42.11
-66.53	-36.01
-66.53	-28.08
-69.27	-17.4
-72.33	-4.88
-73.85	7.93
-73.24	18.92
-71.11	24.72
-68.97	22.28
-66.53	9.46
-63.48	-12.21
-60.42	-37.23
-57.68	-58.29
-56.15	-69.58
-55.54	-70.8
-56.46	-65
-57.98	-56.76
-59.81	-48.52
-62.87	-42.42
-66.83	-38.15
-70.5	-36.01
-71.72	-35.71
-69.58	-36.32
-65	-36.01
-61.95	-33.57
-64.39	-28.99
-73.24	-23.5
-85.45	-19.23
-95.52	-18.31
-100.1	-21.67
-98.88	-28.08
-94.3	-34.48
-89.42	-37.54
-86.98	-35.4
-88.2	-28.08
-92.16	-18.01
-95.52	-7.02
-94.6	4.27
-86.36	16.17
-72.63	28.69
-57.98	42.42
-46.39	56.46
-39.67	69.58
-36.62	81.18
-33.26	90.94
-28.08	98.88
-21.67	104.98
-16.48	109.56
-14.34	112.92
-14.65	114.14
-14.65	111.39
-12.82	101.93
-9.77	84.23
-8.54	61.04
-9.77	37.23
-13.43	18.31
-16.48	7.02
-18.31	1.22
-18.31	-3.05
-18.62	-8.24
-19.84	-14.95
-21.97	-21.06
-24.11	-25.63
-25.63	-28.69
-27.77	-30.82
-32.04	-32.96
-38.76	-34.79
-46.08	-36.32
-51.57	-37.23
-53.71	-38.15
-52.19	-38.45
-49.13	-39.06
-45.47	-39.06
-41.5	-38.76
-38.45	-37.84
-38.15	-36.93
-40.59	-36.32
-44.56	-36.01
-46.69	-35.4
-43.95	-34.18
-38.76	-32.35
-34.18	-30.52
-32.35	-28.99
-33.57	-28.99
-36.01	-29.6
-39.37	-30.52
-43.64	-31.74
-46.08	-32.65
-42.72	-33.57
-32.96	-34.18
-19.53	-34.18
-11.6	-33.57
-16.48	-32.65
-32.35	-32.04
-49.44	-31.74
-57.37	-32.04
-51.27	-32.04
-38.15	-31.74
-28.99	-31.74
-29.91	-31.43
-37.54	-31.13
-43.33	-30.52
-41.2	-29.3
-33.87	-28.08
-27.77	-27.16
-28.69	-27.77
-33.87	-29.3
-36.32	-30.82
-31.43	-31.43
-21.06	-30.82
-11.9	-28.99
-11.29	-26.86
-19.53	-25.63
-30.82	-25.33
-39.37	-25.94
-43.33	-27.16
-44.86	-28.08
-46.69	-28.69
-48.83	-28.69
-48.22	-28.38
-43.95	-27.47
-37.84	-26.25
-34.18	-24.41
-34.18	-21.97
-36.32	-19.23
-37.54	-17.09
-36.93	-16.78
-34.18	-18.31
-31.43	-21.06
-29.6	-23.19
-29.3	-22.89
-29.91	-20.75
-30.82	-18.01
-30.82	-15.87
-29.6	-15.56
-27.77	-15.87
-25.94	-16.48
-25.02	-15.56
-24.41	-13.43
-24.72	-10.38
-25.63	-7.02
-27.16	-3.97
-27.77	-2.14
-25.94	-0.61
-19.84	1.53
-10.68	5.8
-0.61	12.82
7.93	20.75
15.87	28.08
26.55	33.26
40.59	35.4
54.32	35.4
60.73	34.18
56.46	31.74
44.25	29.6
32.04	29.3
27.47	32.04
30.21	36.01
34.79	38.76
36.62	37.54
36.32	33.87
38.15	30.52
46.69	30.52
61.95	32.96
78.43	34.79
88.2	33.57
85.75	29.6
70.8	25.33
47	21.97
20.45	18.01
-3.05	10.68
-19.53	-1.53
-28.08	-16.48
-29.3	-29.3
-25.02	-36.32
-19.23	-36.62
-14.95	-32.65
-14.65	-28.38
-19.23	-26.25
-25.33	-25.94
-30.52	-26.86
-32.04	-27.47
-28.99	-27.16
-23.19	-26.55
-18.31	-25.63
-16.78	-24.41
-18.01	-21.97
-18.01	-16.48
-10.68	-5.8
7.32	11.29
33.57	36.01
63.48	68.05
91.25	106.81
111.69	146.18
118.71	175.78
110.17	185.55
93.38	173.03
89.11	148.01
123.6	128.17
207.21	129.39
324.1	158.08
436.4	209.66
509.95	270.08
534.36	320.74
525.21	348.21(R)
507.81	347.6
497.13	326.23
489.81	299.68
473.02	278.93
439.15	262.45
393.98	241.09
352.48	206.6
328.37	159.91
325.62	110.47
333.86	67.44
338.75	32.35
331.42	3.05
313.11	-24.11
291.14	-49.13
269.78	-68.66
249.94	-79.96
227.97	-83.62
201.72	-84.53
173.65	-89.11
147.09	-102.54
121.15	-124.51
92.77	-146.18
59.2	-154.11
21.06	-140.69
-17.4	-109.25
-49.13	-73.85
-68.66	-48.83
-75.07	-41.2
-72.02	-45.47
-65.92	-50.96
-63.17	-50.66
-65.61	-45.78
-72.02	-40.59
-77.51	-38.45
-78.74	-39.06
-75.68	-39.67
-70.5	-39.06
-66.22	-36.93
-63.48	-34.79
-61.95	-32.96
-61.65	-32.04
-61.34	-32.04
-61.95	-31.74
-63.48	-31.74
-65.61	-31.13
-65.92	-30.52
-64.09	-30.52
-60.42	-31.13
-55.54	-31.74
-50.05	-31.43
-46.39	-29.91
-45.78	-27.77
-47.3	-24.41
-48.22	-18.31
-46.08	-8.24
-40.89	7.02
-37.54	25.94
-40.89	45.17
-50.66	60.42
-61.65	67.14
-66.83	61.65
-63.17	42.72
-54.63	14.34
-47.91	-16.48
-47.61	-42.11
-52.8	-56.46
-59.2	-58.59
-63.17	-51.57
-64.09	-39.06
-64.7	-24.11
-68.05	-8.85
-73.24	5.19
-76.29	14.65
-73.85	13.12
-65.92	0.92
-56.46	-14.65
-48.52	-21.97
-42.72	-12.21
-38.45	12.21
-33.57	37.84
-27.16	52.49
-18.92	54.63
-6.71	53.41
9.16	59.2
25.02	74.16
35.71	90.94
38.45	100.71
34.48	101.32
30.21	97.05
29.91	93.69
32.35	93.38
35.4	94.3
37.23	91.25
37.84	81.18
36.93	64.39
32.65	43.33
24.11	23.19
13.43	7.93
5.19	-1.83
4.58	-7.02
10.99	-8.54
18.31	-6.41
22.28	0
24.11	8.24
26.86	13.73
31.74	13.12
35.1	5.8
30.21	-6.1
16.17	-18.62
0.31	-28.99
-9.46	-34.79
-8.24	-33.26
0	-24.41
7.93	-14.04
11.9	-8.54
12.51	-10.38
9.46	-16.17
4.88	-18.31
-0.61	-12.51
-5.8	-3.05
-7.32	3.05
-1.83	-0.61
7.93	-11.9
15.56	-22.89
18.31	-24.41
14.95	-13.12
9.46	4.27
7.02	17.09
10.07	17.7
15.87	7.02
20.45	-8.54
22.89	-20.14
23.8	-24.41
24.72	-22.28
25.63	-16.78
24.72	-10.07
21.36	-4.88
17.09	-3.36
14.04	-7.93
13.12	-18.01
13.12	-27.77
13.12	-31.13
15.26	-25.02
23.8	-12.82
35.71	-1.83
43.64	1.53
41.81	-3.97
31.13	-14.95
19.23	-27.47
15.26	-38.45
20.75	-44.25
29.3	-41.5
31.43	-31.74
25.02	-22.28
14.65	-21.06
8.24	-28.99
9.77	-37.54
16.17	-38.15
21.06	-28.69
18.92	-17.7
10.99	-18.31
5.8	-33.26
9.46	-53.71
23.19	-66.22
38.76	-63.17
46.08	-47.3
39.98	-30.52
24.11	-22.28
6.71	-25.63
-4.27	-34.79
-8.85	-42.72
-10.68	-46.39
-9.46	-48.83
-3.36	-52.49
10.07	-55.54
27.16	-53.1
41.2	-41.5
45.17	-26.55
36.62	-19.84
21.67	-25.94
8.85	-39.67
4.58	-49.74
11.29	-50.35
24.41	-47.3
36.32	-49.13
41.2	-53.71
37.84	-50.96
28.99	-36.01
20.14	-16.48
17.09	-5.19
20.75	-8.24
30.52	-16.48
45.17	-12.21
60.12	9.16
71.41	34.18
80.26	49.44
85.14	51.27
83.31	46.69
76.9	46.08
70.5	56.46
69.89	71.72
78.13	80.26
90.33	77.21
97.35	65.92
91.86	52.49
79.35	43.03
70.5	38.76
72.63	34.18
86.36	22.28
104.06	7.02
112.61	-4.27
103.45	-7.32
78.13	-7.93
45.17	-16.48
18.01	-37.54
7.63	-60.73
11.6	-72.63
19.53	-66.83
20.75	-54.32
15.87	-49.13
12.21	-56.46
17.09	-68.97
29.6	-75.99
40.59	-73.55
39.67	-67.44
26.86	-65.92
10.68	-71.72
2.44	-80.57
6.71	-86.98
22.58	-83.01
46.39	-64.39
72.63	-32.96
97.35	5.8
118.41	45.47
135.5	84.23
147.4	124.21
151.98	166.02
146.18	205.38
128.48	234.07
109.56	248.11
112	252.69
156.25	260.62
242.61	287.78
345.76	343.32
427.86	422.67
462.65	505.37
450.44	567.32
414.43	591.13
380.55	578.31
361.02	545.65
353.39	510.86
346.68	481.26
332.34	451.05
306.7	411.68
273.44	361.02
240.48	301.82
216.98	237.43
209.35	164.79
213.32	78.74
216.98	-22.58
207.21	-133.36
179.44	-239.26
145.57	-323.79
126.65	-377.81
135.19	-401
164.49	-401.92
191.96	-392.15
195.62	-379.33
169.98	-359.8
128.48	-324.4
89.72	-269.78
61.65	-203.25
41.2	-142.82
20.45	-105.59
-1.22	-94.91
-16.78	-101.62
-20.75	-111.08
-14.04	-114.44
-4.88	-110.78
-0.31	-104.68
-1.22	-99.18
-3.97	-94.91
-4.58	-90.03
-2.75	-83.92
0	-77.51
2.14	-72.63
2.44	-71.11
1.83	-72.63
-0.31	-74.77
-3.05	-75.68
-4.27	-74.77
-4.58	-73.24
-3.66	-73.85
-2.44	-77.21
0.61	-81.18
7.32	-82.4
17.09	-79.04
26.55	-73.55
31.13	-68.66
29.91	-66.53
23.5	-66.53
16.17	-66.22
10.38	-65.92
3.66	-68.36
-5.8	-75.68
-17.7	-85.14
-25.33	-91.25
-24.11	-88.2
-12.82	-77.21
2.75	-64.39
14.04	-57.68
15.87	-60.12
8.54	-69.27
-5.8	-80.57
-23.8	-91.55
-43.95	-101.01
-63.17	-109.25
-77.21	-114.14
-82.09	-112.3
-75.68	-101.93
-61.65	-85.75
-47	-67.44
-38.15	-51.27
-36.32	-38.76
-36.62	-28.99
-33.26	-19.23
-23.19	-7.63
-9.46	5.19
0.61	17.09
4.88	26.25
7.63	33.87
12.21	41.5
18.31	48.83
21.97	55.24
21.67	60.42
22.58	67.44
32.35	79.35
51.57	93.38
71.11	101.32
78.43	93.69
69.27	71.11
49.44	43.33
29.6	22.28
16.17	14.04
10.68	14.34
11.29	16.17
17.4	14.34
28.38	8.85
40.89	1.53
48.22	-6.41
46.69	-13.73
36.01	-19.23
21.36	-22.28
10.68	-23.8
6.1	-25.33
7.02	-29.91
10.07	-36.32
12.21	-42.11
11.9	-43.95
10.38	-40.28
9.77	-34.18
9.77	-31.13
12.21	-33.26
18.01	-38.15
25.63	-40.28
32.65	-35.1
37.23	-23.8
37.84	-14.65
35.71	-15.56
33.57	-26.25
32.04	-40.28
28.69	-48.22
24.41	-45.17
21.36	-34.48
20.75	-26.25
23.5	-26.55
28.38	-33.87
33.26	-43.33
35.71	-48.52
34.48	-48.52
28.69	-46.08
21.97	-43.95
20.14	-42.42
26.25	-42.42
36.93	-45.17
45.17	-50.05
45.78	-54.63
38.76	-54.32
29.3	-48.22
22.28	-39.98
18.01	-36.32
18.31	-38.76
24.72	-43.95
32.04	-48.22
32.65	-51.27
22.89	-55.24
6.71	-61.95
-5.49	-71.72
-4.27	-81.79
8.85	-90.33
21.36	-96.74
24.72	-98.57
21.97	-93.99
21.97	-83.92
27.77	-71.72
36.01	-61.95
41.81	-57.68
42.11	-59.2
38.76	-63.78
34.48	-68.66
27.16	-72.63
14.65	-77.21
0.92	-84.53
-7.02	-94.3
-3.36	-101.32
10.07	-100.1
27.47	-90.33
39.67	-78.74
43.33	-73.85
37.23	-80.57
24.11	-95.83
6.71	-110.78
-9.46	-115.05
-15.26	-99.49
-3.05	-60.73
25.33	-5.49
58.29	48.52
80.26	79.65
84.53	76.9
77.21	46.69
69.58	5.49
66.53	-28.69
64.39	-46.39
58.29	-46.08
49.74	-32.96
47.3	-13.12
57.07	6.71
75.99	20.75
94.3	26.55
104.06	23.19
102.23	8.85
89.11	-18.62
68.97	-53.1
52.19	-79.65
50.05	-84.53
70.19	-64.7
107.12	-34.79
142.21	-16.78
154.11	-21.97
132.75	-43.33
87.59	-65.61
41.5	-78.74
11.9	-85.14
3.97	-92.16
10.68	-103.15
21.67	-114.14
30.21	-117.49
36.01	-112.92
40.59	-104.37
45.47	-94.91
48.52	-84.53
47.3	-71.72
39.98	-57.07
28.99	-43.95
20.45	-34.18
21.67	-26.55
36.01	-18.01
59.2	-3.66
84.23	19.53
104.98	50.05
118.41	83.31
127.26	117.19
135.8	150.76
145.57	182.5
153.2	209.96
157.47	226.44
161.13	222.17
179.44	198.67
232.85	174.26
330.51	172.42
454.41	207.52
566.1	276.49
630.8	357.36
638.73	420.23
610.96	446.78(R)
579.83	439.15
563.35	415.04
555.42	393.98
535.28	379.64
489.2	358.89
424.19	317.69
363.46	257.26
328.67	193.48
325.93	144.96
339.97	112.3
346.98	77.21
331.42	26.55
295.1	-40.28
250.85	-113.53
213.01	-181.88
189.51	-241.39
181.88	-288.09
187.38	-314.94
198.97	-316.77
206.3	-298.46
198.67	-273.74
169.37	-253.3
123.9	-230.1
77.51	-188.9
42.72	-126.04
22.58	-60.42
14.04	-21.06
9.77	-21.06
6.41	-45.47
3.97	-64.09
3.97	-57.07
4.88	-30.21
4.58	-6.41
4.27	-3.97
7.32	-20.75
13.43	-43.33
22.58	-58.59
32.35	-60.12
38.76	-48.52
40.59	-29.6
39.37	-12.51
36.01	-6.1
34.18	-14.04
34.48	-30.21
37.23	-42.42
40.89	-40.89
46.08	-28.69
52.8	-16.78
59.81	-15.26
64.09	-24.41
63.78	-37.54
59.51	-48.22
54.63	-55.24
54.93	-59.51
60.73	-61.34
68.36	-61.04
74.16	-56.76
77.82	-50.05
78.74	-44.86
77.82	-43.03
76.29	-47.61
74.77	-58.59
73.55	-73.24
72.94	-86.36
72.33	-91.55
68.36	-83.92
61.65	-65.31
54.93	-47.61
50.96	-44.56
50.66	-61.34
53.1	-88.5
58.29	-107.12
64.7	-103.15
71.11	-77.51
76.29	-43.95
79.65	-17.4
83.62	-2.14
92.16	7.63
104.37	17.7
117.19	29.6
125.73	41.2
130.31	52.19
133.06	65.92
135.19	85.14
134.28	107.42
130	129.09
124.51	146.18
121.15	159.3
118.1	167.85
111.39	169.68
97.66	162.35
80.57	145.87
69.58	125.12
70.19	107.42
78.43	97.35
84.84	93.99
83.62	93.99
76.29	93.99
67.44	90.94
61.04	82.4
56.76	68.05
52.19	50.05
48.83	32.96
48.52	22.89
52.19	21.67
54.93	26.55
52.8	32.35
43.95	33.26
33.57	28.69
28.38	23.8
32.96	25.33
43.64	37.54
52.8	57.07
53.41	75.68
45.47	86.98
39.98	90.33
48.22	87.28
76.6	75.38
119.02	45.47
164.49	-11.29
205.08	-94.6
237.73	-194.7
264.59	-300.6
284.42	-407.71
292.66	-517.58
287.48	-630.8
276.49	-743.41
271	-853.58
275.88	-963.13
287.78	-1078.19
298.77	-1202.09
304.26	-1331.48
306.09	-1453.55
303.04	-1556.09
277.71	-1626.89
205.38	-1656.8
73.55	-1644.9
-98.88	-1596.07
-263.67	-1513.06
-370.48	-1394.96
-400.7	-1241.76
-375.37	-1057.74
-336.3	-857.54
-314.03	-661.62
-309.45	-486.15
-302.43	-339.97
-276.49	-230.71
-235.29	-167.54
-195.92	-149.23
-170.59	-154.72
-152.28	-148.01
-124.21	-96.44
-73.85	12.21
-6.41	159.3
58.9	310.06
105.29	436.71
128.48	528.26
132.45	587.46
126.04	621.64
117.19	636.9
110.78	639.34
108.34	635.07
109.56	631.41
112.3	635.68
115.66	648.8
122.07	666.50(R)
134.58	681.15
151.37	686.65
166.32	682.37
175.17	675.05
179.14	670.78
182.5	672.3
184.02	677.49
177	678.41
157.17	671.08
132.14	659.48
115.66	650.94
118.1	648.5
135.8	653.08
153.5	664.37
156.25	682.37
140.69	707.09
115.97	737
94.91	767.21
84.23	794.68
86.06	823.36
97.96	861.51
113.83	911.25
126.34	964.05
130.92	1009.83
131.23	1045.23
134.28	1074.83
145.87	1104.43
164.79	1135.25
180.36	1159.97
186.16	1172.18
186.46	1175.23
191.04	1178.28
203.25	1186.83
218.81	1197.51
229.49	1201.17
234.07	1190.49
239.87	1165.16
255.43	1132.2
281.98	1098.33
311.58	1064.76
334.47	1026
345.46	977.78
345.46	921.33
340.88	861.51
336.91	802.31
335.69	744.93
334.47	690.61
328.67	640.87
314.94	597.53
295.72	561.52
277.71	528.26
267.03	494.69
262.76	459.59
260.01	425.11
251.77	390.32
236.51	353.09
220.03	315.86
207.82	284.73
199.89	264.28
191.65	251.16
180.05	239.26
166.32	224.3
155.64	208.44
149.84	194.09
146.79	178.22
140.08	155.94
126.34	127.56
110.47	103.45
97.66	95.83
89.72	106.2
85.45	122.38
85.45	129.39
89.11	122.07
97.05	108.03
106.51	98.57
113.83	99.49
115.66	107.12
114.14	112.3
112	109.86
106.51	100.1
91.86	86.36
67.75	73.85
45.17	71.11
38.15	83.01
53.71	109.56
83.92	140.08
110.78	157.17
121.46	150.15
119.32	123.9
115.66	94.91
116.88	75.38
119.63	68.66
116.27	71.11
104.37	78.43
89.72	90.33
82.09	105.9
85.14	118.71
94.3	122.68
102.54	118.1
104.68	111.69
100.71	111.69
93.69	119.02
87.28	126.95
82.09	125.73
76.9	109.86
69.89	83.31
64.09	60.12
63.48	54.32
69.89	69.27
81.18	96.13
91.25	118.1
95.83	121.15
93.69	104.37
86.98	81.18
79.04	67.75
72.02	69.58
66.22	81.48
61.34	91.55
57.98	94.6
57.07	97.66
59.81	109.25
67.14	128.78
75.99	142.52
80.57	136.41
77.51	110.47
69.58	80.57
62.26	64.39
61.04	67.75
66.83	82.7
75.68	96.44
82.09	101.93
84.53	101.93
82.7	101.01
78.43	99.18
74.16	92.47
68.36	78.13
59.2	61.65
48.83	59.81
43.03	84.84
46.39	133.36
57.68	186.77
68.05	219.73
70.5	216.37
65.61	180.97
60.73	130.62
63.17	86.06
71.41	61.34
77.51	60.12
74.46	75.68
63.48	93.99
50.66	102.84
41.5	97.96
38.15	84.84
39.98	70.19
47.91	57.98
59.51	50.96
70.8	53.41
77.82	65.92
78.43	83.01
75.99	94.6
73.55	91.86
71.72	77.82
69.27	66.53
65	69.58
61.95	84.84
61.34	99.79
61.65	104.98
61.04	95.83
58.9	75.68
58.29	54.63
59.81	41.81
61.34	43.95
60.73	61.34
57.07	83.92
52.8	96.44
52.19	88.5
55.54	65.61
59.81	46.39
61.65	48.22
59.2	70.19
51.88	96.44
43.03	107.12
36.93	95.21
38.45	73.55
50.96	62.56
69.58	72.02
85.14	95.21
89.72	117.8
82.4	131.23
69.89	140.69
62.26	158.08
63.48	186.16
68.36	217.59
72.02	239.26
72.33	244.14
73.24	236.21
81.18	228.27
98.57	230.1
119.63	241.39
135.19	253.3
141.3	256.65
140.08	248.72
139.47	232.54
144.96	209.05
155.33	178.22
159.61	140.08
147.09	98.88
117.19	63.17
80.87	42.42
49.74	36.62
31.74	39.67
26.86	45.78
31.13	49.74
40.89	47.3
55.24	37.23
68.97	22.28
75.99	9.46
72.33	4.58
57.98	3.97
40.59	-0.31
29.91	-11.29
30.21	-22.89
38.76	-25.33
49.74	-17.09
58.59	-7.63
66.22	-7.02
76.29	-13.12
91.86	-10.68
112	16.78
131.23	70.5
141.6	130.62
