186.46	1630.86
-149.23	1206.97
-320.13	781.86
-323.79	425.72
-240.78	185.24
-162.66	61.65
-133.06	12.51
-142.21	-18.01
-158.08	-65.31
-161.44	-125.73
-155.64	-173.34
-152.59	-190.73
-154.72	-183.11
-157.78	-171.2
-157.78	-169.98
-155.94	-180.36
-154.72	-192.26
-153.81	-196.53
-152.59	-191.96
-150.45	-185.24
-147.09	-183.41
-143.43	-187.68
-141.6	-192.87
-141.6	-192.87
-142.82	-186.46
-144.04	-177.92
-144.04	-173.03
-142.52	-172.42
-139.47	-174.56
-136.11	-176.39
-132.75	-176.39
-130	-175.48
-128.48	-174.87
-127.26	-173.34
-125.12	-169.07
-122.38	-162.66
-119.02	-155.94
-116.88	-151.37
-116.27	-150.76
-115.97	-153.5
-115.36	-156.25
-113.22	-156.25
-109.56	-149.54
-104.37	-137.02
-98.88	-121.77
-94.6	-109.86
-90.94	-104.06
-87.89	-103.76
-84.23	-104.68
-79.65	-102.84
-73.55	-96.74
-66.53	-87.59
-59.51	-76.9
-52.49	-65.31
-45.17	-53.1
-36.62	-39.67
-26.55	-25.63
-15.87	-11.9
-4.58	0.92
6.1	13.73
16.17	28.38
26.86	48.22
38.76	73.24
50.66	100.1
61.65	123.9
69.89	140.99
74.46	151.06
75.68	157.17
76.6	162.05
78.13	167.85
80.26	173.03
80.57	176.39
76.29	177.31
67.14	175.17
54.32	169.37
40.28	159.91
26.25	145.57
13.12	127.26
0.92	105.9
-10.99	82.4
-21.97	58.29
-32.04	34.18
-41.2	10.07
-49.74	-13.12
-57.98	-34.18
-65.61	-52.8
-72.33	-68.36
-77.82	-81.79
-81.48	-92.47
-83.92	-100.4
-84.84	-105.29
-84.84	-107.73
-84.84	-109.86
-86.06	-113.53
-88.81	-119.32
-91.86	-125.12
-93.69	-128.78
-93.99	-129.09
-92.77	-127.56
-91.55	-127.26
-91.25	-130
-91.25	-134.89
-91.55	-139.77
-90.94	-142.82
-90.33	-143.13
-89.72	-141.91
-90.03	-140.38
-90.03	-138.55
-89.72	-136.72
-88.2	-134.89
-86.36	-133.67
-84.23	-133.36
-82.4	-133.36
-81.18	-133.06
-80.26	-132.45
-79.65	-132.14
-79.04	-132.75
-78.13	-135.5
-77.51	-139.16
-76.9	-142.82
-76.29	-144.96
-75.38	-144.96
-74.77	-143.43
-73.85	-141.91
-72.63	-140.69
-71.11	-139.16
-69.58	-137.33
-68.36	-135.19
-67.14	-133.97
-66.53	-133.67
-65.92	-133.97
-65.31	-133.97
-64.7	-132.75
-63.78	-130.31
-62.26	-126.34
-60.73	-122.07
-59.2	-118.1
-58.29	-115.97
-58.29	-115.66
-58.9	-116.58
-59.2	-117.49
-59.2	-117.49
-58.59	-116.27
-57.98	-115.66
-58.9	-115.36
-60.73	-115.36
-62.87	-114.75
-64.09	-112.92
-64.39	-110.47
-64.7	-109.56
-65.61	-110.17
-67.14	-112.3
-68.66	-114.44
-69.27	-115.36
-68.66	-114.44
-66.53	-111.39
-62.56	-105.59
-56.46	-97.35
-48.22	-88.81
-38.76	-81.48
-29.3	-74.77
-20.45	-65
-12.51	-47.3
-5.8	-20.75
0.31	8.24
6.1	28.08
11.6	30.52
16.17	16.78
19.23	-2.75
21.06	-15.26
24.11	-14.34
29.3	-3.66
36.01	7.63
39.06	10.99
33.87	3.05
20.14	-14.65
4.27	-37.54
-4.88	-61.04
-3.36	-81.48
5.8	-97.35
14.34	-109.86
17.7	-119.32
15.26	-125.12
10.07	-126.95
3.36	-125.73
-7.63	-123.9
-24.41	-124.82
-46.39	-129.7
-69.58	-137.63
-89.42	-147.09
-102.54	-156.56
-109.56	-165.71
-111.69	-172.73
-112	-176.09
-112.92	-175.78
-114.75	-173.34
-117.19	-170.9
-118.41	-169.98
-118.1	-169.37
-115.36	-169.07
-109.56	-171.51
-97.05	-184.63
-70.8	-220.34
-28.38	-284.42
26.55	-367.13
85.14	-444.03
139.77	-485.23
191.65	-472.41
249.63	-398.25
324.71	-254.82
423.58	-19.53
547.18	336
690	809.94
836.18	1340.33
946.96	1819.46
953.98	2142.03
800.78	2243.65(R)
492.55	2121.58
112.61	1822.82
-208.44	1415.1
-368.04	979.92
-359.8	599.67
-264.59	331.42
-178.22	177.61
-148.93	93.38
-164.49	23.5
-186.16	-58.59
-188.6	-140.08
-175.17	-191.96
-161.74	-202.33
-157.17	-187.07
-158.08	-171.81
-159.3	-170.59
-158.39	-180.36
-155.33	-190.73
-151.37	-194.09
-148.01	-190.43
-145.57	-184.02
-144.35	-179.44
-143.74	-177.31
-142.52	-176.7
-140.69	-175.78
-138.55	-173.95
-136.41	-171.51
-134.28	-168.76
-132.75	-166.02
-131.53	-163.88
-130	-161.74
-128.17	-160.22
-125.73	-158.39
-123.6	-156.25
-121.77	-154.11
-121.15	-152.59
-120.24	-151.98
-119.02	-152.59
-117.19	-152.28
-115.36	-150.76
-113.53	-147.4
-112.3	-143.74
-110.47	-139.47
-107.73	-135.19
-103.76	-130.62
-99.79	-126.04
-96.44	-121.46
-93.69	-116.58
-90.64	-110.78
-86.67	-103.45
-81.48	-95.21
-76.29	-86.98
-71.72	-79.65
-68.05	-72.63
-63.78	-64.39
-58.59	-53.71
-51.27	-40.28
-42.72	-25.33
-33.57	-9.16
-24.41	7.63
-15.87	25.02
-7.32	43.33
0.92	62.26
8.85	81.79
16.17	100.4
22.89	118.1
28.99	134.28
34.48	148.93
39.98	162.05
44.56	173.34
47.91	181.88
49.44	187.38
48.52	189.82
45.17	189.82
39.67	187.07
32.35	180.97
23.19	170.9
13.73	155.64
4.58	135.5
-3.66	111.69
-11.6	86.06
-19.84	60.42
-28.99	35.4
-38.45	11.6
-46.69	-9.77
-53.1	-28.99
-58.29	-46.08
-62.56	-61.04
-67.14	-74.46
-71.41	-86.06
-75.07	-95.21
-77.21	-102.23
-78.43	-107.12
-79.35	-111.08
-80.57	-114.44
-81.79	-117.49
-82.7	-119.93
-83.31	-121.77
-83.62	-122.07
-83.92	-120.24
-83.62	-113.53
-81.18	-97.05
-73.55	-66.83
-58.9	-21.06
-33.26	36.93
7.93	102.23
70.8	171.51
160.52	242.92
277.1	312.81
411.68	367.43
545.65	380.55
650.02	313.42
700.07	125.73
685.73	-198.97
616.15	-633.24
517.27	-1102.91
415.95	-1508.79
327.76	-1770.94
250.55	-1868.90(R)
169.98	-1844.18
67.75	-1763.31
-67.44	-1678.16
-234.99	-1603.39
-422.97	-1522.52
-611.27	-1418.15
-776.37	-1289.98
-899.96	-1148.07
-971.07	-1006.16
-987.24	-873.41
-955.51	-754.09
-886.84	-649.41
-794.37	-558.47
-690.61	-476.99
-586.24	-400.39
-492.25	-331.12
-419.31	-280.76
-372.92	-260.31
-350.34	-271
-343.63	-300.29
-342.41	-328.37
-339.66	-337.83
-331.73	-321.96
-317.08	-283.2
-293.58	-230.1
-260.62	-171.81
-219.12	-113.53
-171.51	-54.63
-120.54	9.77
-68.66	81.48
-21.06	154.72
16.48	216.06
38.45	255.74
44.56	276.18
40.28	292.36
32.96	319.82
27.77	363.16
26.55	412.9
28.38	455.32
32.04	484.01
36.93	503.23
41.81	520.63
45.47	540.77
47.61	564.58
49.74	591.13
53.41	621.64
59.51	657.96
66.83	698.24
74.16	738.53
81.79	776.37
90.03	812.68
100.1	852.36
111.08	899.05
122.68	951.84
134.28	1005.55
146.18	1053.77
158.69	1093.44
171.81	1127.01
185.24	1159.06
198.67	1195.68
212.1	1238.1
225.52	1282.04
238.95	1321.11
252.08	1349.49
264.89	1366.88
276.49	1376.95
287.78	1385.19
299.07	1392.82
310.67	1396.48
322.57	1390.38
334.47	1370.24
345.46	1336.98
354.61	1295.78
361.02	1253.36
364.07	1213.38
364.38	1175.54
362.85	1135.86
359.8	1088.87
355.22	1032.1
347.9	966.19
336.91	896.3
323.49	827.94
308.53	763.55
293.27	703.43
277.1	644.23
258.48	583.8
236.51	521.55
212.4	458.37
187.68	397.34
165.1	342.1
145.57	294.49
128.48	254.82
112.61	218.51
96.13	182.19
78.43	143.74
60.12	105.59
41.81	70.5
25.33	41.81
11.6	18.92
-0.31	-0.31
-9.77	-18.31
-18.92	-36.32
-27.77	-55.24
-36.32	-74.46
-43.64	-92.47
-49.13	-106.51
-52.19	-114.14
-53.71	-115.97
-55.24	-116.27
-57.07	-119.02
-59.81	-126.65
-62.87	-137.63
-65.92	-148.93
-68.66	-156.56
-70.8	-159
-72.94	-158.39
-74.77	-158.39
-76.6	-161.74
-78.13	-168.15
-79.35	-174.87
-80.57	-178.53
-80.57	-178.22
-79.96	-175.17
-79.65	-173.34
-80.57	-175.17
-83.62	-180.66
-88.2	-188.6
-91.86	-196.53
-93.08	-201.42
-91.55	-201.72
-88.81	-197.75
-86.98	-193.18
-87.59	-192.26
-90.33	-195.92
-93.69	-201.11
-96.13	-204.47
-96.74	-202.64
-96.13	-199.28
-96.44	-198.67
-98.57	-204.47
-101.93	-214.23
-104.06	-222.78
-104.37	-226.75
-102.84	-226.14
-101.62	-222.47
-102.23	-219.12
-104.37	-216.98
-105.59	-216.06
-105.29	-215.45
-103.15	-214.54
-101.32	-212.71
-100.71	-209.66
-101.62	-208.44
-103.45	-210.57
-105.29	-216.06
-107.12	-222.78
-109.56	-226.75
-112	-225.52
-112.61	-220.34
-110.47	-213.62
-106.51	-209.35
-102.54	-209.05
-101.32	-211.49
-104.37	-214.54
-109.56	-216.06
-114.14	-216.06
-115.36	-216.06
-113.22	-216.67
-109.25	-217.29
-104.68	-215.45
-101.62	-212.4
-101.32	-209.96
-104.06	-210.27
-107.73	-212.71
-110.47	-214.54
-109.86	-213.01
-106.81	-207.52
-103.76	-200.5
-102.23	-195.62
-102.54	-194.09
-102.84	-194.4
-101.62	-194.7
-100.1	-192.57
-99.79	-187.99
-101.93	-184.33
-104.98	-184.02
-107.12	-187.68
-106.81	-192.57
-105.59	-195.62
-105.29	-195.01
-106.2	-191.65
-107.12	-187.68
-106.81	-184.63
-104.68	-182.19
-101.93	-179.75
-100.1	-177.92
-99.18	-177.92
-99.49	-180.05
-100.71	-183.41
-101.62	-184.63
-101.62	-181.58
-100.71	-175.48
-98.27	-169.68
-95.52	-168.76
-93.99	-171.81
-93.99	-174.56
-95.52	-173.03
-98.27	-168.15
-100.4	-163.27
-101.62	-162.05
-100.71	-164.49
-98.57	-166.93
-96.13	-166.02
-94.3	-162.35
-94.3	-159.3
-94.6	-159
-94.91	-160.52
-94.3	-160.22
-92.47	-155.94
-89.11	-149.54
-85.75	-145.26
-83.31	-145.26
-83.31	-147.4
-85.14	-149.23
-88.2	-149.54
-90.33	-150.45
-90.03	-153.5
-88.2	-157.47
-85.75	-157.78
-83.62	-150.76
-82.7	-140.08
-82.7	-132.14
-83.62	-132.45
-85.45	-139.77
-87.59	-149.54
-88.2	-155.94
-87.28	-156.56
-85.14	-152.28
-82.09	-146.18
-79.35	-139.16
-76.9	-132.45
-75.07	-126.65
-74.77	-122.68
-76.29	-122.38
-79.35	-124.51
-81.79	-126.95
-82.4	-126.95
-80.57	-122.99
-78.13	-116.88
-77.21	-112
-78.43	-110.47
-80.87	-112
-82.09	-113.83
-82.09	-114.14
-80.87	-112.61
-79.96	-110.47
-79.04	-110.17
-78.43	-111.69
-77.51	-113.53
-76.29	-112.92
-75.38	-109.56
-75.07	-104.37
-75.07	-100.1
-75.68	-98.88
-75.68	-99.79
-74.77	-100.4
-73.24	-99.18
-71.72	-96.44
-70.5	-93.38
-69.27	-91.55
-68.36	-91.25
-67.14	-90.33
-65.31	-87.28
-62.87	-82.7
-58.59	-77.51
-52.19	-74.16
-43.64	-72.63
-33.57	-69.27
-23.19	-58.29
-13.43	-36.32
-5.49	-7.02
0.92	19.84
5.8	34.18
10.07	32.65
14.65	22.89
19.84	17.09
26.86	22.58
36.01	36.93
44.25	50.05
47	51.88
39.67	40.28
23.5	18.92
4.88	-5.8
-5.8	-29.6
-4.27	-50.96
6.71	-69.27
18.62	-84.23
24.41	-95.52
22.28	-103.15
14.04	-108.03
2.75	-110.17
-10.99	-110.17
-26.55	-108.03
-43.03	-104.68
-58.9	-102.84
-72.63	-104.37
-84.23	-110.78
-93.38	-120.54
-100.1	-129.39
-103.45	-133.97
-103.76	-133.36
-102.84	-130.92
-102.23	-130
-101.32	-133.36
-96.74	-142.82
-81.79	-164.79
-50.66	-208.74
-3.66	-278.32
52.19	-361.63
109.25	-432.13
162.66	-459.9
216.37	-427.55
279.24	-327.76
357.97	-150.45
456.24	127.56
575.56	525.82
712.59	1024.48
849	1543.58
934.45	1973.27
895.08	2220.15
688.78	2241.52(R)
347.9	2056.88
-21.06	1721.5
-285.95	1302.19
-373.84	874.33
-317.08	512.08
-211.18	262.45
-139.77	122.68
-126.95	48.83
-147.71	-7.93
-164.79	-71.11
-162.96	-130.62
-151.98	-165.71
-144.65	-170.59
-144.35	-159.61
-146.79	-151.06
-147.09	-152.89
-144.96	-161.44
-141.6	-169.68
-138.55	-173.65
-136.41	-173.34
-136.11	-171.51
-136.11	-169.98
-135.5	-169.07
-133.67	-167.85
-130.62	-165.41
-127.26	-161.44
-124.51	-156.86
-123.29	-152.89
-122.99	-150.45
-122.99	-149.54
-121.77	-149.23
-119.63	-147.71
-117.19	-145.26
-114.75	-141.6
-112.61	-137.02
-110.47	-132.45
-107.73	-127.56
-104.98	-123.6
-102.54	-121.15
-100.4	-120.24
-97.96	-119.32
-94.6	-117.49
-90.33	-114.14
-85.75	-109.86
-82.09	-104.98
-79.04	-100.1
-75.99	-95.21
-72.94	-90.03
-69.27	-84.84
-65.61	-79.65
-61.04	-74.16
-55.54	-67.75
-49.13	-60.42
-42.42	-51.88
-36.32	-43.03
-30.21	-33.57
-23.5	-23.5
-14.95	-11.6
-5.19	2.14
3.97	17.09
12.51	32.65
20.45	48.52
28.38	65
37.23	81.79
46.39	99.18
54.63	115.97
61.65	131.53
67.44	145.57
72.94	159.3
77.51	172.12
81.48	184.33
83.62	194.7
83.92	202.94
82.4	208.44
78.74	211.18
73.55	211.79
67.14	210.27
59.81	205.99
51.88	198.36
43.64	186.77
34.79	170.59
25.33	150.45
15.26	128.17
4.88	105.9
-5.8	84.84
-15.56	65.61
-23.8	48.22
-30.52	32.35
-36.32	17.4
-41.81	3.66
-46.69	-9.46
-51.27	-21.06
-55.54	-31.43
-59.51	-40.28
-63.48	-47.91
-67.75	-55.24
-71.11	-61.65
-72.94	-67.14
-73.85	-71.72
-74.77	-74.77
-76.29	-77.21
-77.82	-79.04
-78.43	-81.18
-77.82	-83.01
-76.29	-84.84
-74.16	-86.36
-72.94	-87.59
-72.63	-88.5
-72.63	-89.72
-72.63	-91.25
-72.02	-93.08
-70.5	-94.3
-68.05	-95.21
-65.31	-96.13
-62.87	-97.05
-61.34	-98.27
-60.42	-99.18
-59.51	-99.18
-57.37	-99.18
-54.63	-99.49
-51.57	-100.4
-49.13	-102.23
-47.91	-104.37
-47	-105.29
-45.78	-105.29
-43.33	-104.06
-40.28	-102.54
-37.54	-101.01
-35.71	-100.1
-35.1	-99.49
-34.48	-98.57
-33.57	-96.44
-31.43	-92.77
-28.99	-88.2
-27.77	-83.92
-27.77	-80.87
-28.69	-79.35
-29.3	-76.6
-28.69	-68.97
-25.33	-51.88
-18.62	-22.89
-4.88	15.56
21.67	57.98
69.89	102.23
149.54	152.89
266.72	220.95
416.87	308.53
580.14	393.37
720.21	424.5
796.81	333.86
785.52	71.41
692.75	-357.06
553.28	-875.24
415.34	-1362.61
310.97	-1700.44
238.65	-1832.28(R)
170.29	-1790.47
70.5	-1666.87
-80.26	-1549.99
-276.18	-1474.3
-489.81	-1418.76
-686.65	-1343.99
-838.93	-1233.22
-932.92	-1103.21
-968.93	-978.7
-958.86	-866.09
-918.88	-755.92
-862.12	-640.87
-792.54	-527.65
-709.84	-428.16
-614.62	-349.12
-514.22	-290.83
-422.36	-253.3
-351.56	-239.87
-307.62	-248.41
-286.25	-266.11
-279.24	-275.88
-278.02	-267.03
-275.57	-244.75
-266.11	-220.95
-244.75	-201.11
-209.05	-178.53
-159.61	-141.3
-100.1	-83.31
-37.54	-7.93
18.31	69.27
56.76	131.84
71.11	169.68
62.56	187.99
41.5	200.81
20.14	222.47
7.63	257.26
5.49	295.72
8.54	325.32
12.82	342.71
15.87	354
17.09	367.74
16.78	387.88
15.56	411.68
14.04	434.88
13.43	457.15
14.34	479.43
16.48	503.85
19.53	530.09
23.19	556.34
28.08	582.58
34.48	609.74
42.72	639.95
52.19	674.13
62.26	711.36
72.63	751.65
82.4	794.37
92.16	840.15
102.84	888.67
115.05	938.72
128.48	988.16
142.21	1034.55
155.64	1077.58
167.85	1118.16
180.05	1157.23
193.48	1194.46
208.74	1226.81
224.91	1251.22
241.09	1266.48
256.65	1273.8
271	1275.94
285.03	1275.02
298.77	1271.06
311.58	1260.99
323.18	1241.76
332.95	1211.85
340.88	1172.79
347.6	1127.93
352.78	1080.32
355.53	1031.8
354.92	981.14
350.65	927.12
343.02	868.84
331.42	806.58
317.08	743.41
300.6	682.07
281.98	624.39
262.45	569.15
242	514.22
220.95	458.07
199.58	401
177.61	346.07
155.64	296.33
134.89	252.99
115.66	216.06
98.27	182.8
81.48	150.76
63.78	117.8
46.39	83.62
30.21	50.05
17.4	19.23
7.32	-6.1
-0.92	-25.02
-9.77	-39.06
-20.14	-50.96
-30.82	-63.17
-39.37	-75.99
-44.25	-87.28
-46.08	-95.52
-47.3	-101.93
-50.35	-109.86
-55.54	-120.85
-60.42	-133.36
-63.17	-142.21
-62.87	-144.35
-61.04	-140.08
-59.51	-134.58
-59.51	-131.53
-60.12	-132.14
-60.42	-136.11
-60.12	-142.21
-59.81	-150.76
-59.81	-160.52
-60.12	-168.46
-60.73	-170.59
-60.73	-165.71
-59.81	-155.94
-58.59	-146.48
-57.98	-140.99
-58.9	-141.6
-61.04	-147.71
-63.78	-158.08
-65.92	-169.98
-66.83	-180.97
-67.44	-188.6
-68.66	-191.35
-70.5	-190.12
-72.94	-185.85
-74.46	-179.75
-75.07	-173.03
-74.46	-168.46
-74.46	-169.37
-75.38	-177.61
-76.9	-190.73
-77.51	-201.42
-77.21	-202.03
-76.6	-191.35
-75.99	-176.09
-76.9	-166.32
-78.74	-168.46
-80.26	-180.66
-81.18	-194.4
-82.4	-202.94
-83.62	-204.47
-84.23	-201.11
-83.62	-195.92
-81.79	-189.82
-79.35	-184.02
-77.82	-179.75
-77.21	-178.83
-78.13	-181.58
-79.65	-186.16
-81.18	-189.51
-82.7	-189.51
-83.62	-187.07
-84.23	-184.94
-84.23	-185.85
-84.53	-190.12
-84.53	-193.48
-83.01	-191.96
-80.26	-183.72
-77.21	-173.65
-75.68	-167.24
-75.99	-167.24
-77.82	-171.51
-79.04	-175.17
-79.04	-176.7
-78.13	-178.83
-77.51	-184.02
-78.13	-190.12
-78.43	-191.65
-77.82	-184.63
-77.51	-170.9
-77.21	-157.17
-76.29	-150.15
-73.85	-152.59
-69.58	-160.22
-66.22	-167.54
-65.61	-170.9
-69.27	-170.29
-74.46	-168.15
-77.51	-166.63
-76.29	-165.71
-72.33	-163.27
-68.66	-159
-67.44	-153.81
-68.66	-150.76
-70.8	-152.89
-72.02	-159
-71.72	-165.1
-70.5	-167.54
-69.27	-164.18
-68.66	-157.17
-68.66	-149.23
-68.66	-142.82
-68.66	-138.55
-68.05	-136.72
-67.44	-138.55
-66.53	-143.43
-65.61	-148.32
-64.39	-148.62
-63.17	-143.43
-62.87	-136.11
-64.7	-132.75
-68.66	-136.41
-73.24	-144.65
-76.9	-152.59
-78.13	-155.94
-76.9	-154.72
-74.16	-151.06
-70.8	-147.71
-67.14	-145.26
-63.78	-141.91
-60.73	-135.5
-58.9	-126.65
-58.29	-119.02
-59.51	-117.49
-61.65	-122.38
-64.7	-130
-66.22	-135.5
-66.22	-135.5
-65	-132.45
-64.7	-130.31
-65.61	-132.14
-67.75	-136.11
-67.75	-138.55
-65	-135.8
-61.34	-128.78
-59.2	-120.24
-60.12	-115.66
-62.87	-118.1
-65	-125.12
-63.78	-131.53
-59.81	-132.45
-55.24	-127.26
-53.41	-119.93
-55.24	-116.58
-59.51	-118.41
-63.17	-122.99
-64.09	-126.95
-61.34	-128.78
-57.07	-127.26
-53.71	-122.68
-52.19	-115.05
-51.88	-106.81
-51.27	-102.54
-49.44	-105.59
-45.17	-113.53
-39.06	-119.93
-30.52	-118.71
-20.14	-107.73
-9.46	-86.98
-0.61	-58.9
5.49	-27.16
10.07	-0.31
14.34	13.43
19.53	9.77
25.63	-5.19
31.43	-18.92
37.23	-20.75
43.33	-9.77
50.35	7.93
54.63	22.28
50.96	25.94
38.15	17.09
20.75	-3.36
8.54	-32.65
7.63	-65
15.87	-94.6
25.63	-115.97
28.99	-127.26
24.41	-128.78
16.17	-124.51
7.32	-119.63
-1.83	-117.8
-13.43	-119.02
-28.38	-121.15
-45.17	-122.68
-61.04	-122.99
-74.16	-125.73
-84.23	-133.67
-90.94	-145.57
-94.6	-156.25
-95.21	-160.22
-93.08	-155.33
-89.72	-145.57
-86.67	-137.02
-83.01	-138.85
-75.38	-159
-57.37	-203.86
-24.41	-273.44
22.28	-354.92
76.6	-425.42
132.14	-459.9
188.29	-443.73
250.24	-372.01
325.01	-237.73
417.18	-17.7
530.4	318.6
664.67	774.84
812.38	1293.64
938.42	1768.19
972.6	2090.15
849.91	2194.52(R)
565.19	2081.3
192.87	1798.4
-137.02	1409.61
-315.86	982.67
-326.84	589.9
-241.09	292.36
-152.28	113.83
-112.61	28.69
-118.41	-14.95
-137.33	-59.2
-143.74	-113.22
-137.33	-158.69
-129.39	-178.83
-127.56	-176.09
-129.7	-166.93
-131.84	-164.79
-130.62	-171.81
-127.26	-181.88
-122.99	-188.6
-120.24	-189.21
-119.63	-185.85
-119.93	-181.58
-119.02	-180.36
-116.58	-182.8
-113.83	-187.07
-112	-189.21
-111.08	-187.68
-110.47	-184.02
-109.25	-180.36
-108.34	-178.53
-107.12	-178.22
-105.9	-177.61
-104.06	-176.39
-101.32	-174.26
-97.66	-172.12
-93.99	-170.29
-90.64	-168.15
-88.5	-165.41
-87.59	-162.05
-87.28	-159.3
-86.36	-156.86
-83.92	-155.33
-79.96	-155.03
-74.77	-155.64
-69.58	-155.64
-65	-154.42
-61.34	-151.06
-58.29	-145.87
-55.24	-139.77
-51.88	-133.97
-48.22	-129.09
-43.64	-124.51
-37.84	-119.32
-31.13	-111.39
-23.8	-101.01
-16.48	-89.42
-9.16	-78.13
-1.53	-67.14
6.41	-55.54
15.26	-42.42
24.41	-27.77
33.87	-12.82
43.33	1.22
52.49	14.95
61.95	29.6
71.41	45.17
79.96	61.34
86.67	76.6
91.86	90.33
95.52	101.93
98.88	111.69
101.62	119.63
103.45	125.73
102.84	129.39
99.18	131.53
92.77	131.53
84.84	130
76.29	125.43
67.14	118.1
57.98	107.73
47.91	94.3
36.62	79.04
24.72	62.87
12.51	46.08
0.61	28.69
-11.29	10.38
-22.28	-8.54
-32.04	-27.16
-39.37	-43.95
-44.25	-57.98
-47.91	-69.27
-51.88	-79.04
-56.15	-87.28
-60.73	-94.91
-64.09	-100.4
-65.92	-104.37
-66.83	-106.81
-68.05	-108.64
-69.89	-111.39
-72.94	-114.75
-75.07	-118.71
-75.99	-122.07
-75.38	-124.21
-74.46	-125.43
-74.16	-126.04
-75.07	-126.04
-76.29	-125.73
-77.21	-126.04
-77.21	-126.65
-76.9	-126.95
-76.29	-127.56
-75.68	-127.56
-74.46	-127.56
-72.94	-127.56
-71.11	-127.87
-69.27	-128.48
-68.36	-129.7
-67.44	-131.23
-66.53	-132.75
-64.7	-133.97
-61.95	-134.58
-59.2	-134.58
-56.15	-134.28
-53.71	-133.97
-51.27	-134.28
-49.13	-135.19
-47	-136.72
-45.17	-138.24
-43.95	-139.77
-43.33	-140.99
-42.72	-141.3
-41.81	-140.38
-39.67	-138.24
-37.23	-135.19
-35.4	-132.75
-35.71	-131.53
-37.23	-131.84
-39.37	-132.75
-40.59	-133.06
-39.98	-132.14
-38.76	-129.7
-38.15	-126.65
-38.45	-123.6
-39.67	-121.15
-41.2	-119.32
-42.42	-118.1
-42.72	-117.49
-42.42	-117.49
-42.42	-117.49
-43.33	-117.8
-44.56	-117.49
-45.47	-116.58
-46.08	-115.66
-46.69	-115.05
-47.91	-115.36
-49.74	-117.19
-51.27	-119.63
-51.88	-121.77
-51.88	-122.99
-51.57	-123.29
-52.19	-122.38
-53.1	-120.85
-54.02	-119.32
-53.41	-117.8
-51.27	-115.36
-47.91	-111.39
-43.33	-104.68
-37.23	-95.83
-29.91	-86.98
-21.36	-80.26
-12.82	-73.85
-4.27	-64.09
3.66	-45.78
10.68	-19.53
17.7	7.02
24.41	22.28
30.21	19.84
35.1	3.66
37.84	-14.65
39.67	-23.8
43.03	-19.84
49.13	-7.63
54.63	2.14
54.02	0.92
44.25	-13.12
27.77	-36.62
13.43	-62.26
9.16	-83.92
15.26	-99.18
25.63	-108.95
32.04	-116.58
31.74	-123.29
27.16	-127.87
20.45	-129.7
11.29	-129.09
-2.44	-129.09
-21.97	-131.84
-44.86	-137.94
-67.14	-146.48
-84.84	-155.94
-95.83	-165.41
-100.71	-173.34
-101.01	-178.22
-99.79	-179.14
-98.88	-177
-98.57	-173.95
-98.88	-171.81
-99.18	-171.2
-98.57	-171.81
-95.83	-175.17
-87.59	-188.29
-67.44	-222.17
-30.82	-283.51
20.45	-366.21
78.74	-447.69
135.19	-498.66
188.29	-497.74
245.06	-436.1
316.77	-306.4
411.68	-87.59
533.45	247.8
677.8	705.26
830.99	1232.3
957.34	1724.24
990.91	2074.28
868.84	2213.44(R)
583.8	2132.26
206.3	1872.25
-136.11	1496.28
-330.2	1076.97
-350.04	693.36
-264.59	407.1
-171.81	232.54
-130.92	133.97
-139.47	57.68
-161.74	-26.25
-168.46	-110.47
-158.39	-167.24
-146.18	-182.5
-141.91	-168.76
-143.74	-152.28
-146.18	-149.54
-145.87	-160.22
-142.82	-174.87
-138.85	-184.94
-134.89	-187.07
-131.84	-182.8
-129.09	-176.39
-126.95	-171.2
-124.51	-169.07
-122.07	-168.76
-120.24	-169.37
-118.71	-169.98
-117.19	-170.29
-115.66	-170.29
-113.22	-169.68
-109.86	-168.15
-106.51	-165.71
-103.76	-162.05
-101.62	-157.17
-99.79	-151.06
-97.66	-144.96
-95.52	-141.6
-92.77	-140.99
-90.03	-143.13
-87.59	-145.57
-86.36	-146.79
-86.36	-145.57
-87.28	-141.91
-86.67	-137.63
-82.7	-133.67
-74.46	-129.39
-64.39	-124.82
-55.85	-118.41
-52.19	-111.08
-52.49	-104.37
-54.02	-99.49
-52.49	-95.21
-46.39	-88.81
-36.93	-78.74
-27.16	-65.61
-19.23	-53.41
-13.43	-43.64
-7.93	-35.71
-0.61	-27.47
9.46	-15.26
21.67	2.44
34.79	24.41
47	47.3
57.98	66.53
67.14	79.96
75.07	89.11
82.4	98.57
90.64	113.22
98.88	132.75
105.59	151.98
108.95	165.1
109.25	168.15
106.51	163.27
102.23	154.42
96.44	145.87
88.5	139.16
78.13	132.45
65.31	122.07
51.88	105.9
38.45	84.84
25.63	61.34
13.12	38.45
1.83	16.78
-8.85	-4.27
-18.01	-25.02
-26.25	-44.56
-33.57	-61.34
-39.98	-74.46
-46.08	-85.14
-51.88	-95.52
-57.68	-106.2
-64.09	-116.58
-70.8	-124.82
-76.6	-130.92
-80.26	-137.02
-81.48	-144.96
-81.18	-153.5
-80.87	-159.3
-80.87	-160.22
-81.48	-156.86
-82.09	-151.67
-81.48	-147.71
-79.96	-147.4
-79.04	-150.45
-79.96	-155.94
-83.92	-162.96
-89.11	-167.85
-92.77	-167.85
-92.77	-161.74
-90.03	-153.2
-87.28	-147.71
-86.98	-148.62
-89.42	-156.56
-93.08	-166.32
-94.3	-172.73
-92.77	-173.65
-88.81	-169.98
-85.75	-164.79
-85.14	-160.22
-86.67	-156.56
-88.2	-153.81
-87.89	-151.06
-85.75	-150.15
-83.31	-151.37
-82.4	-153.81
-82.4	-156.25
-82.4	-156.86
-81.48	-154.72
-79.65	-150.76
-77.51	-146.18
-75.38	-143.74
-73.55	-144.35
-73.24	-147.71
-73.85	-150.76
-74.46	-149.23
-73.55	-143.13
-70.8	-135.5
-67.44	-132.14
-65.61	-134.89
-66.53	-140.38
-69.27	-142.21
-71.11	-137.33
-70.8	-128.17
-69.58	-121.77
-68.97	-122.07
-69.27	-127.56
-70.19	-133.06
-71.11	-133.97
-71.11	-130.62
-69.89	-127.26
-68.36	-126.65
-66.53	-129.39
-65.31	-131.84
-65.31	-130.92
-67.14	-127.26
-69.89	-124.51
-71.72	-125.43
-71.72	-128.78
-70.5	-130
-68.97	-125.43
-67.44	-114.75
-63.78	-103.15
-57.07	-96.74
-48.22	-97.96
-39.67	-103.15
-33.26	-105.59
-28.99	-99.79
-24.72	-84.53
-18.62	-62.26
-9.77	-36.62
0.31	-12.21
9.16	4.58
15.87	8.85
19.53	1.22
21.97	-11.6
25.63	-18.92
32.65	-13.12
43.33	3.97
53.41	20.75
56.15	24.41
47.3	9.46
29.6	-19.53
12.21	-49.44
4.88	-69.89
9.46	-79.04
19.53	-83.92
26.55	-92.47
25.33	-107.73
18.31	-123.9
8.24	-134.58
-2.75	-136.41
-16.48	-131.53
-33.87	-126.34
-53.71	-126.04
-72.33	-131.84
-86.36	-142.82
-94.91	-154.72
-98.57	-162.66
-99.79	-163.27
-100.71	-158.39
-102.23	-152.89
-104.06	-151.67
-105.29	-156.25
-105.29	-163.88
-104.06	-170.9
-100.1	-176.09
-90.33	-186.16
-68.97	-212.71
-33.26	-267.03
14.34	-345.76
67.75	-427.86
121.77	-483.09
177.31	-485.84
241.39	-424.19
320.74	-290.83
418.4	-67.44
536.19	272.52
674.44	732.73
826.11	1258.85
958.86	1740.72
1004.33	2064.82
894.17	2161.26(R)
615.84	2033.69
237.73	1740.42
-111.08	1352.54
-314.64	937.81
-343.93	560.91
-264.59	275.57
-171.81	104.37
-124.82	25.33
-126.04	-11.9
-144.35	-50.35
-152.28	-101.32
-146.18	-147.09
-136.72	-169.07
-131.84	-167.54
-131.23	-158.39
-130.92	-155.03
-129.7	-159
-126.95	-163.88
-124.51	-164.18
-123.29	-160.52
-123.6	-156.86
-125.12	-156.56
-126.34	-160.22
-126.04	-164.49
-123.9	-166.32
-119.93	-163.57
-115.05	-156.86
-110.17	-148.62
-107.12	-142.82
-106.51	-141.91
-108.03	-145.26
-109.86	-149.84
-110.47	-152.59
-108.95	-151.67
-106.81	-148.01
-104.68	-144.04
-103.45	-141.3
-102.23	-140.38
-100.4	-139.16
-97.35	-137.02
-94.3	-133.97
-91.55	-130.62
-89.42	-127.87
-87.28	-126.04
-84.53	-123.9
-80.57	-120.24
-75.99	-115.36
-71.72	-109.56
-67.75	-103.45
-63.48	-97.66
-58.9	-92.16
-53.71	-86.98
-47.91	-81.18
-41.5	-73.24
-34.18	-63.48
-25.63	-52.19
-16.17	-40.28
-6.1	-28.99
3.36	-17.4
12.51	-4.27
21.97	11.6
32.65	30.21
44.56	50.96
56.76	71.72
68.05	91.55
77.51	109.56
85.45	126.34
92.47	142.52
98.27	158.08
102.54	171.81
104.68	182.8
103.76	189.21
100.4	190.73
94.3	188.29
86.36	182.5
76.9	173.65
66.22	162.35
54.93	148.93
43.03	133.36
30.21	115.05
16.48	94.6
2.75	72.33
-10.07	49.74
-21.36	27.16
-31.43	5.8
-40.59	-15.56
-49.13	-36.32
-56.76	-56.15
-63.17	-73.24
-68.05	-86.67
-72.02	-96.74
-75.68	-104.68
-79.35	-111.69
-82.7	-118.1
-85.45	-123.6
-86.98	-126.95
-87.89	-128.48
-88.2	-129.7
-88.81	-131.53
-89.72	-133.97
-90.33	-136.41
-90.94	-137.94
-91.25	-137.94
-91.25	-136.72
-91.25	-135.8
-91.55	-136.41
-91.86	-138.24
-92.16	-140.38
-92.47	-141.91
-93.38	-142.52
-94.6	-142.82
-95.52	-142.82
-95.83	-142.52
-94.3	-141.91
-91.86	-140.99
-89.11	-140.08
-86.67	-139.16
-85.45	-138.24
-84.53	-136.72
-83.31	-134.89
-80.87	-133.97
-77.82	-134.58
-74.77	-137.63
-72.33	-141.3
-70.19	-143.43
-68.66	-142.82
-67.14	-139.47
-65.61	-136.11
-64.09	-133.97
-62.56	-133.67
-60.73	-134.28
-58.59	-134.58
-56.15	-133.67
-54.02	-131.84
-52.49	-129.39
-51.27	-126.65
-50.96	-124.21
-51.88	-122.38
-53.1	-120.85
-54.63	-119.63
-54.93	-118.71
-53.71	-118.1
-52.19	-117.8
-50.96	-117.49
-50.35	-116.58
-51.27	-115.05
-52.49	-113.53
-54.32	-112.3
-55.85	-111.69
-57.07	-111.69
-57.37	-111.08
-57.07	-109.86
-56.46	-108.34
-55.85	-107.12
-55.85	-106.51
-56.46	-106.51
-57.98	-106.51
-59.51	-106.2
-60.73	-105.59
-61.04	-104.37
-58.59	-101.62
-53.71	-96.74
-46.08	-88.81
-37.54	-79.65
-29.6	-71.41
-23.19	-64.39
89.11	-29.3
98.27	-15.26
109.25	0.92
116.58	15.56
127.87	32.65
142.21	51.57
156.25	74.46
168.76	97.66
182.19	122.07
194.7	143.43
201.11	158.39
211.79	173.65
218.81	182.5
219.12	189.21
222.78	202.03
223.39	213.93
217.9	222.78
216.06	233.46
209.66	231.02
201.11	218.51
192.26	206.91
178.53	191.35
165.71	173.03
150.76	155.03
137.33	129.09
123.29	100.4
110.47	72.33
99.18	45.78
89.42	27.16
79.96	8.85
72.02	-7.02
63.17	-21.67
52.49	-37.84
47	-50.96
41.2	-63.48
34.79	-75.38
33.26	-81.18
33.87	-87.59
30.82	-94.6
30.82	-95.21
28.69	-103.15
22.28	-107.12
22.58	-105.29
20.45	-109.25
21.06	-107.42
21.97	-111.39
19.53	-115.97
18.31	-119.93
16.17	-128.48
18.01	-126.34
18.62	-126.95
19.53	-127.56
18.31	-123.9
16.78	-123.6
14.95	-127.26
14.95	-128.78
16.48	-130.31
15.87	-135.8
15.87	-140.08
15.87	-141.91
14.65	-144.96
15.56	-144.65
14.65	-143.74
15.87	-140.69
16.48	-141.91
15.56	-145.57
16.48	-146.48
17.4	-149.23
19.53	-148.01
21.67	-143.74
22.28	-142.21
24.72	-141.3
24.72	-142.82
25.94	-142.21
30.21	-141.3
30.21	-140.08
31.74	-137.63
34.18	-135.5
35.1	-134.58
36.93	-133.06
37.84	-130.92
37.84	-130.92
38.15	-130.31
37.23	-127.56
40.59	-127.26
41.81	-128.17
43.33	-126.04
46.39	-127.56
45.78	-128.17
46.39	-125.12
45.17	-126.34
42.42	-125.12
42.42	-123.6
42.72	-123.29
43.03	-123.6
43.95	-124.51
45.17	-124.82
44.25	-124.51
42.11	-124.82
44.25	-122.68
42.72	-126.65
44.56	-128.48
44.56	-131.84
43.03	-133.97
42.11	-130.92
40.89	-132.45
42.42	-133.36
42.72	-136.72
42.11	-141.91
42.42	-141.6
47	-136.72
52.19	-126.34
58.29	-117.8
66.53	-111.08
72.02	-107.12
77.51	-105.29
88.5	-87.59
96.44	-59.51
105.59	-27.16
115.05	2.44
121.46	4.88
127.56	-12.21
130.92	-29.6
131.23	-40.59
135.8	-33.87
144.65	-20.45
157.78	-3.66
163.88	-5.19
154.42	-14.65
133.67	-32.35
116.27	-57.68
111.39	-83.92
119.32	-104.68
132.75	-116.88
135.19	-134.58
133.06	-143.74
130.92	-151.67
129.09	-152.28
125.12	-148.32
108.95	-145.57
85.75	-143.74
65	-153.2
41.5	-163.88
24.72	-176.7
16.17	-191.04
2.75	-201.72
-0.31	-207.52
1.53	-204.77
-0.31	-200.5
-1.22	-197.45
-3.05	-194.09
-2.75	-194.09
-3.36	-192.87
-3.05	-192.87
0.61	-198.06
12.21	-219.42
45.78	-274.96
106.2	-364.38
146.79	-447.39
190.73	-500.49
239.26	-499.27
271	-444.95
347.9	-361.33
444.34	-185.85
544.74	104.98
690.31	564.58
857.85	1116.33
1005.86	1612.85
1115.72	1906.13
973.21	2067.87(R)
598.45	2033.39
268.86	1760.56
-71.72	1489.87
-225.83	1060.49
-123.29	650.02
-73.85	431.52
-73.24	285.95
-45.47	196.53
-25.94	79.04
-30.52	-28.08
-10.07	-109.86
-2.14	-140.69
-21.67	-122.99
-26.25	-114.14
-14.34	-135.5
-6.1	-154.42
-10.38	-153.5
-14.95	-150.45
-13.73	-151.67
-6.1	-153.2
-7.93	-154.11
-10.07	-150.15
-6.41	-147.09
-2.44	-147.09
-3.66	-144.96
-3.97	-147.09
-0.92	-144.35
-2.75	-144.35
0.92	-146.18
3.66	-144.35
3.36	-143.74
4.27	-141.6
3.97	-138.85
4.27	-138.24
4.88	-136.41
6.71	-135.5
8.24	-135.5
10.38	-133.06
9.77	-131.53
10.99	-130
14.65	-127.87
14.95	-126.34
15.26	-125.73
18.31	-122.38
18.62	-120.24
21.67	-115.97
24.41	-109.86
25.94	-107.73
32.35	-102.84
32.04	-98.57
35.71	-94.91
42.72	-88.5
43.95	-80.57
48.83	-71.72
56.76	-64.09
58.9	-54.02
65.92	-41.5
75.38	-30.52
81.48	-16.17
91.25	1.83
99.18	17.09
107.42	34.79
117.49	54.93
128.78	75.99
139.16	96.74
149.54	118.71
157.47	138.55
165.71	158.69
177.61	179.75
184.33	195.01
190.73	211.18
195.31	222.47
194.09	227.66
194.7	235.6
196.84	240.17
190.43	237.43
185.24	232.24
177.61	222.47
165.1	208.13
158.39	190.43
146.48	169.68
135.8	145.26
130	119.02
117.49	91.86
108.34	67.75
98.27	45.78
87.28	23.8
80.26	10.38
75.68	-3.97
69.89	-19.53
63.48	-30.52
56.46	-45.78
52.49	-59.81
48.83	-68.36
46.69	-80.26
45.17	-88.81
41.81	-92.47
38.76	-93.08
39.37	-91.86
37.54	-91.55
37.23	-93.08
36.62	-97.35
36.32	-98.88
35.4	-100.1
33.26	-104.37
35.1	-105.9
32.35	-110.78
33.87	-110.78
33.26	-106.51
31.13	-106.2
29.6	-108.64
23.8	-112.92
28.08	-117.8
30.52	-119.02
28.69	-118.1
32.96	-116.27
29.91	-117.49
26.55	-121.15
30.21	-119.93
28.69	-122.38
32.96	-115.66
32.35	-107.42
31.43	-108.03
32.96	-109.56
30.52	-118.71
29.6	-130.62
28.69	-133.67
26.86	-130.31
26.25	-125.73
30.82	-120.24
35.1	-118.71
40.59	-120.24
40.59	-122.07
43.95	-118.1
43.03	-118.71
43.64	-111.39
46.08	-106.2
45.47	-112
48.22	-109.25
47	-112
50.05	-112.61
54.02	-104.37
50.05	-105.59
50.35	-104.98
53.41	-98.57
46.08	-105.59
47.3	-107.42
50.35	-111.08
46.69	-119.32
49.74	-118.71
51.27	-115.05
52.49	-107.73
50.66	-109.56
48.83	-110.78
51.57	-108.34
55.54	-105.59
56.46	-101.62
52.8	-101.93
54.93	-97.66
51.88	-99.18
46.69	-106.51
55.54	-103.45
54.63	-112.92
50.05	-121.15
54.93	-118.71
50.96	-118.41
54.32	-109.86
50.66	-104.37
49.74	-105.29
52.19	-105.29
48.22	-108.95
49.44	-111.39
50.96	-112
51.88	-110.47
48.22	-113.22
47.61	-115.36
48.83	-115.05
41.5	-116.88
46.08	-111.39
46.39	-107.42
44.86	-104.37
53.71	-98.57
55.24	-100.4
61.65	-96.13
68.97	-90.33
72.02	-96.74
76.9	-100.4
86.06	-98.88
95.83	-82.7
104.68	-47
113.83	-3.05
119.02	22.89
122.38	20.75
131.84	6.41
137.02	-10.68
139.47	-16.48
151.98	-4.58
154.72	-1.83
168.76	15.26
172.73	13.73
157.17	6.41
137.63	-6.71
120.85	-32.65
119.02	-61.04
127.26	-83.31
138.55	-90.64
136.72	-105.29
131.53	-119.02
128.48	-130.62
128.17	-132.45
127.26	-135.5
112	-132.45
88.81	-130.92
66.83	-146.18
44.56	-153.5
28.08	-159
19.53	-164.49
5.8	-177
1.53	-183.72
2.75	-187.07
0.31	-192.57
4.88	-183.72
4.58	-179.75
0.92	-183.41
-1.53	-180.05
0.61	-174.56
7.32	-180.36
21.67	-214.84
75.07	-280.15
128.78	-384.83
161.74	-461.12
218.51	-487.67
264.89	-454.1
305.18	-394.59
403.14	-283.51
501.4	-72.33
623.17	266.42
797.42	784.91
976.26	1341.25
1136.78	1759.64
1204.22	1962.89
961.91	2046.81(R)
586.85	1869.81
250.85	1571.96
-86.98	1263.43
-164.79	793.76
-67.44	463.87
-59.2	274.05
-57.98	167.54
-21.36	104.98
-14.95	12.21
-20.75	-62.26
3.66	-121.46
-8.24	-135.5
-24.11	-121.15
-26.25	-123.6
-10.99	-144.96
1.22	-149.23
-8.54	-155.94
-6.1	-152.59
-1.83	-156.56
-3.97	-162.66
-2.44	-154.11
-5.49	-151.98
-3.66	-148.62
0	-149.54
-0.92	-156.25
-1.22	-150.76
-2.44	-150.45
0.31	-149.84
-0.61	-148.01
0.92	-152.59
3.05	-154.42
2.14	-152.28
9.46	-147.09
1.22	-153.81
4.88	-151.98
9.46	-148.32
-1.22	-152.89
7.63	-144.96
9.77	-142.82
9.46	-147.09
14.34	-147.71
14.95	-146.18
12.51	-140.08
12.21	-130.92
15.26	-122.99
18.01	-115.97
18.01	-117.19
23.5	-116.58
28.99	-116.27
36.01	-113.22
45.78	-102.54
48.22	-99.18
50.66	-97.35
51.88	-93.38
58.9	-83.01
69.89	-70.5
79.65	-49.44
87.89	-30.21
95.52	-26.86
104.68	-14.34
110.17	0.92
122.68	16.78
136.41	40.89
143.13	57.68
162.05	73.55
172.12	90.03
177.31	110.17
193.18	134.58
200.81	148.32
207.52	161.74
219.73	177
221.25	185.55
217.9	191.65
220.95	201.42
214.84	204.77
206.91	201.11
201.72	198.06
190.12	190.12
178.22	174.56
167.54	159
151.67	141.3
137.33	119.32
121.15	91.25
108.95	68.05
99.79	47.3
89.11	26.55
81.18	4.58
74.16	-14.95
61.65	-39.06
53.41	-57.98
47.91	-71.72
40.59	-83.31
35.4	-88.2
35.71	-93.08
34.48	-97.66
29.6	-105.29
28.99	-110.78
24.72	-119.93
21.06	-122.68
20.14	-119.02
20.14	-123.6
23.19	-124.21
20.45	-122.38
22.89	-124.51
25.02	-127.26
22.89	-126.95
21.67	-129.09
18.92	-136.41
10.38	-137.33
8.54	-133.67
9.77	-133.06
7.32	-134.58
11.9	-133.36
11.9	-136.72
9.16	-143.13
11.9	-140.38
10.68	-138.55
10.68	-138.24
9.77	-136.41
9.46	-134.89
9.46	-135.5
9.16	-135.5
10.68	-133.67
7.93	-136.11
9.46	-135.5
11.29	-135.8
12.51	-134.28
15.56	-133.67
17.7	-130.92
18.92	-128.17
17.7	-130.31
18.31	-129.09
17.7	-131.53
17.4	-131.53
22.89	-126.95
23.8	-123.6
26.25	-119.93
29.3	-117.8
28.08	-120.54
30.82	-122.38
32.96	-122.07
32.35	-123.29
37.54	-119.32
36.93	-118.41
37.23	-116.88
39.67	-117.49
38.45	-119.32
37.84	-121.15
41.2	-121.15
39.98	-121.46
37.54	-125.43
39.37	-123.9
36.32	-126.34
38.76	-127.87
39.37	-125.12
38.15	-126.34
37.84	-129.39
36.62	-130.31
34.18	-131.84
32.65	-133.67
36.93	-129.7
34.79	-129.7
34.79	-130.62
38.45	-129.7
35.4	-131.23
34.18	-129.7
36.93	-126.65
36.93	-126.34
35.1	-129.09
36.01	-132.14
36.93	-134.28
35.4	-137.33
35.4	-135.8
37.84	-133.67
36.32	-134.28
33.57	-133.06
37.23	-130.62
39.98	-127.87
44.25	-120.54
54.32	-111.69
62.56	-108.34
70.5	-104.37
78.43	-94.6
86.67	-71.41
93.38	-39.37
100.1	-6.71
105.9	4.88
108.34	-8.85
117.49	-27.16
118.71	-43.03
120.85	-44.86
129.39	-37.23
137.02	-21.06
145.26	-16.78
145.57	-21.36
130.31	-27.77
106.51	-52.49
95.21	-78.43
95.21	-102.54
105.29	-122.38
115.05	-136.41
113.22	-148.01
110.47	-155.94
108.95	-159.91
108.34	-155.03
98.88	-160.22
81.79	-156.86
58.29	-160.22
32.04	-172.42
11.9	-176.09
-1.83	-185.24
-13.12	-198.67
-18.01	-203.86
-20.45	-206.91
-20.14	-205.08
-19.23	-201.11
-23.19	-202.64
-23.19	-200.2
-23.19	-200.81
-24.72	-201.42
-20.75	-201.72
-9.77	-218.51
14.34	-264.28
71.11	-346.37
120.54	-435.18
156.56	-496.52
212.1	-510.56
244.45	-464.48
304.26	-392.76
402.83	-247.8
498.35	3.66
630.8	412.6
798.95	949.71
955.2	1483.15
1088.26	1837.77
1044.62	2026.98
699.46	2073.97(R)
345.76	1836.55
6.41	1562.5
-239.26	1192.32
-180.97	733.03
-96.74	470.58
-98.57	306.7
-82.09	207.52
-57.98	97.66
-57.68	-13.12
-42.72	-95.21
-22.89	-147.09
-38.76	-133.36
-53.1	-117.8
-43.95	-131.53
-33.26	-152.59
-32.04	-152.89
-37.84	-150.15
-39.67	-149.54
-31.13	-152.89
-32.65	-156.25
-32.35	-155.33
-28.69	-154.11
-27.16	-153.5
-23.8	-153.2
-25.63	-153.5
-27.16	-150.15
-24.72	-149.23
-23.5	-151.06
-22.28	-148.93
-21.06	-148.62
-21.36	-147.71
-18.62	-144.35
-18.92	-144.65
-18.62	-143.43
-17.09	-142.52
-17.7	-143.74
-15.56	-141.6
-12.21	-140.99
-10.99	-140.99
-10.68	-137.63
-8.54	-137.02
-7.02	-136.41
-7.63	-135.19
-3.97	-133.06
-0.92	-129.09
-0.31	-127.56
1.22	-123.29
4.58	-119.02
7.02	-116.88
7.93	-110.78
14.34	-103.76
20.45	-96.74
22.89	-88.5
30.82	-79.35
37.23	-69.58
38.76	-60.12
47.3	-46.39
53.71	-32.35
59.81	-19.23
71.11	-0.92
79.35	18.01
87.59	33.57
100.1	57.68
108.64	82.09
118.41	101.93
127.87	126.04
137.94	149.84
145.87	163.27
154.42	180.66
164.79	198.97
167.54	208.44
172.42	220.95
173.65	229.49
170.9	231.63
167.24	231.02
159.3	224.91
151.06	216.37
143.43	203.55
133.97	190.73
124.82	173.03
112	148.32
99.79	121.15
90.03	89.11
81.18	64.39
69.89	41.81
60.73	21.36
51.57	0.61
40.89	-23.8
36.01	-45.17
32.96	-62.87
24.72	-75.38
23.5	-79.04
16.78	-82.09
17.09	-86.67
18.31	-90.94
12.51	-101.93
14.04	-108.95
12.82	-109.56
7.93	-110.47
7.93	-110.78
6.41	-112
4.27	-112.3
3.36	-113.22
3.36	-114.75
7.63	-112.3
0.92	-120.54
0.31	-127.56
1.53	-128.48
-2.14	-131.23
0.61	-129.7
-2.14	-129.09
-6.1	-126.95
-4.58	-125.73
-3.97	-124.82
1.83	-122.68
5.19	-126.95
3.05	-128.17
-0.92	-132.14
-3.36	-132.75
-3.97	-130
-2.44	-132.45
-2.75	-133.97
2.44	-131.84
0	-133.67
-2.44	-134.28
3.66	-127.56
-3.97	-131.23
0.61	-131.53
1.83	-133.06
1.83	-140.99
5.8	-139.77
1.83	-132.45
9.46	-114.75
6.1	-108.95
9.77	-109.56
14.95	-117.8
11.6	-135.19
13.12	-143.13
14.34	-137.33
11.9	-128.78
8.54	-121.15
15.56	-109.86
15.87	-108.03
19.84	-112.92
28.38	-110.78
23.5	-116.27
23.5	-116.58
17.7	-115.36
13.43	-119.63
16.48	-118.71
10.38	-120.24
17.09	-116.27
20.14	-112.92
18.92	-118.71
17.09	-119.32
17.4	-117.8
12.82	-115.66
16.17	-100.1
21.67	-97.35
24.72	-107.12
22.28	-119.93
18.31	-128.17
19.53	-127.26
16.17	-121.77
19.23	-112.92
18.62	-114.14
13.12	-114.75
15.26	-110.47
11.9	-110.47
18.92	-108.03
20.45	-112.3
19.23	-119.32
17.7	-123.9
11.29	-125.73
10.38	-125.73
12.51	-122.38
15.87	-122.07
14.95	-124.51
13.43	-125.12
14.95	-125.12
10.38	-119.63
15.87	-109.56
9.77	-110.47
6.41	-113.22
7.32	-119.02
7.63	-127.26
13.73	-126.34
23.8	-115.05
30.82	-104.68
39.37	-93.08
48.52	-86.36
57.07	-82.09
59.2	-66.83
66.53	-40.59
78.43	-7.02
80.26	9.46
90.33	9.77
101.93	-5.8
100.4	-20.14
104.37	-15.87
116.88	-7.02
123.29	7.02
133.06	20.14
138.85	18.92
119.32	11.9
94.6	-1.83
82.4	-30.21
78.13	-54.63
90.94	-79.35
102.84	-103.15
97.66	-121.77
97.35	-131.23
91.86	-137.63
82.09	-128.17
79.35	-123.29
55.54	-130
34.79	-126.34
21.36	-139.16
-2.44	-151.67
-11.9	-150.76
-17.09	-160.22
-29.91	-166.93
-30.21	-162.05
-28.69	-165.1
-32.35	-168.76
-35.71	-167.85
-30.82	-173.03
-29.3	-176.7
-30.82	-171.81
-25.02	-177.61
-13.73	-190.43
14.34	-233.15
71.41	-321.96
112.61	-401.31
144.96	-452.27
202.33	-449.22
235.29	-408.02
314.33	-339.66
422.36	-182.5
522.77	78.13
672.61	539.25
852.05	1107.18
1016.54	1611.33
1149.9	1912.54
1064.76	2041.02(R)
697.94	1989.75
354.61	1714.48
2.14	1436.77
-223.69	1020.81
-155.64	595.4
-94.3	362.85
-101.93	205.69
-68.05	156.25
-45.78	77.51
-56.46	-17.09
-40.59	-77.21
-28.69	-113.22
-43.03	-108.34
-52.49	-93.69
-44.25	-112
-37.84	-132.75
-40.89	-127.26
-40.59	-120.85
-37.23	-123.29
-32.35	-133.36
-34.18	-136.72
-40.89	-135.19
-41.2	-134.89
-34.79	-131.53
-30.21	-130
-30.82	-130.92
-28.69	-122.99
-27.47	-117.19
-29.3	-124.51
-29.3	-130.62
-28.69	-135.19
-29.6	-132.75
-28.99	-125.73
-26.25	-117.49
-27.16	-111.69
-23.5	-115.36
-22.28	-113.22
-24.41	-112
-20.14	-110.47
-20.14	-106.2
-20.45	-103.15
-17.09	-98.88
-17.4	-95.83
-14.65	-93.08
-10.68	-95.83
-10.07	-98.88
-6.41	-98.88
-5.49	-96.74
-3.66	-88.2
2.14	-81.18
5.49	-75.99
12.51	-70.5
15.87	-64.7
21.36	-57.98
27.16	-49.74
32.35	-41.81
39.98	-30.52
46.69	-18.62
55.85	-4.88
64.09	10.38
74.77	24.11
87.28	42.11
97.96	58.29
112.3	79.65
126.65	102.54
137.33	122.68
148.32	144.35
159	164.18
165.1	177.31
171.81	187.07
178.83	200.5
182.5	214.84
186.16	228.58
187.68	240.78
185.24	245.06
182.19	243.84
172.73	239.26
163.57	233.46
152.59	225.22
135.5	209.96
120.85	191.35
107.42	169.37
92.47	140.69
78.43	112
68.05	84.53
54.93	56.76
41.2	35.1
35.4	18.01
26.86	2.75
20.14	-7.32
17.09	-18.62
12.51	-29.6
6.1	-42.11
3.36	-55.24
1.22	-62.26
-3.36	-66.53
-5.49	-65.61
-8.85	-66.53
-11.29	-71.72
-13.73	-81.48
-14.34	-92.16
-15.56	-100.4
-18.62	-104.98
-18.92	-102.54
-21.36	-99.79
-21.06	-97.66
-22.28	-98.57
-21.67	-99.79
-20.14	-102.23
-23.8	-104.68
-22.28	-104.98
-23.19	-108.03
-25.02	-109.56
-21.06	-108.95
-21.97	-105.9
-22.28	-104.37
-21.67	-104.68
-21.97	-106.2
-23.5	-111.08
-21.67	-111.39
-19.84	-109.56
-21.36	-109.86
-18.62	-109.25
-19.23	-108.03
-20.75	-107.42
-17.7	-105.9
-16.17	-101.01
-15.26	-99.18
-15.26	-102.84
-13.12	-103.15
-12.82	-101.93
-12.51	-101.62
-8.24	-97.35
-9.16	-94.3
-8.54	-94.91
-5.19	-92.47
-4.58	-90.03
-1.53	-89.42
-0.92	-86.36
-1.83	-89.11
0.92	-89.11
0.31	-85.45
2.14	-84.23
4.27	-84.84
2.75	-86.36
1.83	-87.28
0.31	-90.94
-0.31	-90.33
-3.05	-89.11
-4.27	-91.55
-3.05	-91.25
-3.36	-92.77
-1.83	-93.08
-1.53	-94.91
-2.75	-94.91
-3.97	-95.52
-5.19	-97.05
-2.14	-96.13
-2.14	-97.05
-2.75	-99.18
-0.92	-99.18
-4.27	-100.4
-7.32	-103.45
-6.1	-101.62
-6.41	-101.62
-6.1	-102.23
-6.71	-101.62
-4.88	-101.32
-8.24	-102.84
-9.46	-103.76
-6.41	-103.15
-9.77	-107.73
-7.93	-107.12
-7.02	-106.51
-10.07	-110.17
-8.85	-109.56
-10.38	-110.78
-10.38	-111.39
-7.93	-107.73
-6.71	-104.37
-1.53	-97.66
2.75	-89.72
9.46	-79.35
18.01	-72.63
24.11	-72.94
34.18	-69.89
44.56	-49.44
50.05	-19.84
60.12	19.84
67.44	47.3
68.66	40.89
75.38	18.92
74.16	-3.66
75.07	-10.68
82.4	-7.63
91.55	5.8
107.73	24.11
112	22.58
101.01	18.31
81.48	0.31
65.31	-28.38
57.98	-56.76
64.7	-79.35
77.82	-89.72
76.9	-104.06
75.68	-115.97
76.6	-122.07
72.63	-120.24
68.36	-120.54
52.8	-119.32
32.04	-117.19
10.07	-126.65
-11.9	-133.97
-23.19	-139.16
-34.79	-150.15
-45.47	-164.18
-47.3	-168.46
-50.05	-170.29
-54.02	-168.46
-52.8	-165.71
-54.32	-166.32
-55.24	-164.49
-50.05	-163.27
-50.96	-162.35
-41.81	-169.07
-21.06	-206.3
28.69	-284.73
86.98	-376.89
126.34	-441.89
181.88	-468.75
218.81	-429.38
265.81	-358.89
357.67	-239.26
448.3	-11.9
569.46	359.5
730.29	875.85
892.03	1426.39
1031.49	1831.05
1052.25	2051.7
757.45	2160.64(R)
386.35	1979.07
57.68	1695.86
-236.51	1364.14
-233.15	881.96
-124.51	573.43
-119.32	393.68
-110.78	280.15
-85.45	173.03
-84.53	49.74
-77.82	-38.15
-54.02	-103.76
-63.78	-101.62
-82.7	-82.7
-78.43	-88.5
-62.56	-111.39
-60.42	-115.36
-65.61	-109.86
-67.14	-108.03
-62.26	-111.69
-59.2	-114.75
-61.95	-115.97
-62.26	-113.83
-61.04	-112.92
-61.04	-114.75
-58.9	-112.3
-57.07	-111.08
-56.15	-109.25
-52.49	-108.03
-50.35	-108.34
-51.27	-109.25
-49.44	-108.95
-47.61	-106.51
-47.61	-107.42
-45.78	-104.06
-44.56	-103.76
-41.81	-103.45
-39.67	-99.79
-37.84	-99.79
-35.71	-97.66
-36.62	-95.83
-36.01	-91.55
-33.26	-86.98
-33.57	-87.28
-29.6	-83.92
-25.94	-85.45
-26.25	-85.14
-23.19	-80.87
-21.36	-75.99
-20.45	-71.11
-14.04	-66.83
-10.07	-62.56
-6.1	-58.9
1.53	-50.35
3.66	-38.76
9.77	-22.89
15.87	-9.46
19.84	0.31
29.91	8.24
36.32	17.7
47	34.48
57.98	51.57
63.17	73.55
73.24	92.77
83.31	109.56
92.77	131.23
105.9	147.71
117.8	167.24
127.87	188.29
131.84	206.3
137.02	225.52
143.13	239.26
149.84	244.75
157.17	249.33
159.91	251.77
157.17	256.65
148.93	259.09
139.16	256.35
131.53	241.39
120.85	215.45
106.51	189.82
96.74	165.71
86.06	149.23
72.33	133.97
67.44	111.69
57.07	80.26
45.47	50.05
41.2	26.86
32.35	9.46
21.97	0.92
15.87	-12.21
8.85	-28.08
4.27	-42.42
0.92	-58.9
1.22	-62.87
0.31	-65.61
-3.05	-60.42
-3.97	-54.32
-3.97	-54.93
-10.99	-64.09
-12.21	-74.46
-11.9	-81.48
-16.78	-89.42
-17.4	-87.89
-14.34	-90.03
-15.87	-98.57
-13.73	-95.21
-13.73	-93.38
-18.31	-86.98
-18.01	-81.18
-16.48	-81.79
-17.4	-87.28
-14.95	-91.86
-18.31	-92.77
-23.5	-92.47
-22.89	-88.81
-21.06	-88.5
-20.14	-97.96
-15.87	-101.93
-14.65	-108.95
-16.48	-113.53
-13.73	-99.18
-13.73	-95.21
-15.87	-93.99
-12.82	-89.11
-17.09	-102.54
-16.17	-106.81
-13.43	-108.03
-15.56	-113.22
-14.65	-104.68
-5.8	-97.66
-5.19	-97.96
-6.1	-94.6
2.75	-96.74
-0.92	-97.66
-5.8	-89.42
5.19	-81.48
-0.31	-82.7
-2.44	-90.03
2.44	-100.1
-4.58	-108.64
1.22	-101.32
2.14	-90.64
7.02	-78.13
13.43	-68.05
6.41	-68.36
7.63	-74.77
3.97	-84.53
0.92	-90.64
4.27	-95.83
0.92	-92.47
3.36	-81.18
1.83	-82.7
4.27	-77.82
4.58	-82.09
1.53	-90.33
3.36	-88.2
-3.05	-93.08
-2.14	-94.6
-2.14	-91.55
-3.05	-91.86
-4.88	-91.86
-0.31	-86.06
0.31	-87.89
-3.36	-94.91
3.36	-89.42
-1.53	-94.91
-3.66	-99.18
0.31	-97.05
-8.54	-104.06
-2.75	-101.32
-2.44	-98.57
-4.58	-94.6
-3.36	-89.11
-3.97	-90.03
-3.36	-86.06
-2.44	-87.59
0.61	-94.3
-2.44	-95.52
-0.61	-95.83
3.05	-95.52
0.61	-97.96
6.1	-95.52
-2.14	-104.06
-4.88	-99.49
-3.36	-90.33
-5.49	-94.3
2.44	-87.28
12.51	-85.75
19.53	-80.57
25.02	-72.33
32.65	-63.17
38.76	-53.1
48.83	-38.76
57.07	-19.84
72.94	11.9
76.9	31.13
81.79	31.74
94.91	28.08
94.6	17.4
92.77	9.46
96.44	20.14
105.29	36.93
117.49	48.83
125.73	39.06
120.54	32.35
92.77	12.51
73.24	-19.53
69.58	-35.71
75.99	-58.29
92.47	-83.62
91.86	-92.47
88.81	-96.74
82.4	-106.2
78.13	-104.37
74.77	-105.29
55.85	-108.95
38.76	-104.68
17.09	-107.73
-6.1	-114.44
-17.7	-126.34
-28.38	-145.87
-39.06	-159.91
-43.03	-169.37
-43.33	-168.15
-38.76	-153.5
-44.25	-144.35
-35.1	-140.38
-36.62	-138.85
-46.69	-140.08
-43.64	-141.91
-40.59	-150.76
-13.73	-185.85
42.42	-274.96
98.88	-373.54
130.92	-444.95
182.5	-468.14
224.3	-415.34
284.73	-337.83
388.49	-209.96
480.35	22.89
605.77	408.02
767.82	937.5
931.7	1483.15
1088.26	1855.16
1096.5	2022.09
787.96	2051.70(R)
427.25	1826.78
82.4	1543.88
-208.44	1194.76
-199.89	727.54
-108.34	432.43
-110.17	250.85
-100.4	171.51
-67.44	112.61
-66.83	26.25
-55.85	-39.67
-35.71	-93.69
-49.13	-91.55
-63.17	-75.99
-61.34	-82.7
-43.64	-103.15
-44.86	-115.36
-55.85	-109.56
-59.51	-105.9
-53.71	-106.2
-49.44	-102.54
-50.05	-101.93
-47	-97.96
-44.86	-97.96
-45.17	-99.18
-45.47	-97.66
-46.08	-99.79
-46.69	-101.62
-46.69	-101.93
-43.64	-102.54
-41.81	-101.01
-40.59	-97.66
-39.06	-94.3
-39.67	-94.6
-41.2	-94.91
-38.76	-91.86
-33.26	-93.08
-33.26	-96.44
-33.87	-97.66
-29.6	-97.35
-29.91	-96.44
-25.94	-92.16
-20.14	-84.53
-21.36	-82.7
-20.14	-81.48
-17.7	-78.13
-18.01	-77.51
-15.26	-75.38
-10.38	-69.58
-7.93	-63.48
0.31	-57.37
5.8	-53.1
8.85	-49.44
14.65	-44.56
20.14	-37.23
26.25	-25.63
33.26	-15.56
40.59	-5.8
46.39	4.58
54.93	16.78
63.48	30.21
75.38	49.13
85.45	65.61
96.44	80.87
109.56	102.23
120.54	123.29
131.84	144.96
143.74	169.07
154.11	187.68
160.83	205.99
169.68	222.78
175.17	236.21
177.31	246.89
180.05	253.6
177.31	256.04
174.56	257.26
166.63	256.35
155.94	245.97
145.57	237.43
134.58	224
121.15	203.86
110.47	186.46
97.35	161.44
83.62	135.19
70.5	108.03
60.42	82.7
51.57	59.51
39.37	34.79
28.99	16.17
19.84	-1.22
11.29	-16.78
7.32	-28.69
4.88	-41.81
2.44	-51.88
-3.05	-61.04
-6.41	-66.53
-7.63	-71.41
-9.16	-75.99
-8.24	-79.35
-9.46	-82.09
-12.51	-84.84
-14.65	-86.98
-16.17	-90.33
-16.17	-94.91
-15.87	-96.44
-17.4	-97.35
-17.09	-99.18
-17.7	-97.66
-20.45	-99.79
-19.53	-99.18
-18.62	-98.27
-21.06	-97.96
-19.84	-98.27
-18.62	-101.01
-21.67	-103.45
-19.84	-106.51
-20.45	-107.42
-20.14	-107.42
-21.36	-109.86
-22.28	-109.56
-21.97	-110.78
-21.97	-110.47
-18.31	-108.64
-17.4	-108.95
-15.87	-106.81
-15.26	-106.2
-15.56	-108.64
-14.34	-108.64
-13.73	-111.08
-11.6	-110.17
-12.51	-109.25
-9.16	-106.81
-7.02	-105.29
-5.49	-107.73
-2.75	-104.06
-2.44	-103.45
-2.44	-101.93
-0.31	-97.05
2.44	-97.66
2.14	-97.96
3.66	-98.88
1.83	-99.49
-0.61	-101.32
1.83	-100.1
0.61	-98.27
2.75	-100.4
2.44	-100.4
-1.53	-101.01
-0.61	-101.62
-3.36	-103.15
-3.97	-100.4
-1.53	-100.4
-3.05	-102.23
-2.14	-101.01
0.31	-101.32
-0.61	-102.54
-0.92	-103.15
-1.22	-102.84
-3.05	-105.9
-5.19	-107.42
-3.36	-106.51
-5.19	-107.12
-6.1	-108.64
-6.41	-108.34
-9.77	-109.86
-7.93	-109.86
-6.41	-109.86
-7.02	-110.17
-4.58	-108.03
-3.66	-109.86
-3.66	-110.17
-3.05	-109.86
-3.97	-113.53
-5.19	-113.83
-5.8	-113.53
-5.49	-113.83
-4.88	-112.92
-5.49	-112.92
-3.36	-112.92
-4.58	-114.44
-4.27	-116.27
-3.36	-117.8
-4.27	-117.8
2.14	-111.69
8.85	-103.15
16.17	-94.6
23.8	-89.72
29.3	-89.11
36.93	-84.23
47.61	-63.78
57.98	-31.43
67.75	5.19
74.46	29.6
79.04	26.25
84.84	7.63
85.14	-9.77
86.36	-16.48
91.25	-12.82
98.57	-0.92
110.47	9.46
116.58	6.71
104.68	0.92
81.18	-17.09
65.92	-44.56
62.26	-70.5
70.5	-91.25
86.67	-103.76
86.98	-116.58
83.62	-125.73
79.65	-133.67
77.51	-129.39
75.99	-127.56
58.29	-129.39
36.62	-128.17
15.26	-140.08
-12.51	-149.23
-26.25	-153.81
-34.48	-165.71
-48.22	-178.83
-49.13	-184.63
-49.74	-186.16
-51.88	-184.63
-53.1	-180.66
-53.41	-180.36
-51.27	-180.97
-50.66	-179.44
-47.61	-179.44
-37.54	-189.21
-14.65	-226.44
39.98	-303.04
98.88	-391.24
141.3	-451.36
193.48	-474.24
229.19	-431.21
277.1	-363.46
364.07	-243.23
457.15	-9.16
579.83	371.09
736.39	890.2
888.06	1442.26
1015.93	1843.57
1019.29	2068.18
713.2	2177.73(R)
352.78	1993.41
31.74	1710.82
-248.72	1366.27
-229.19	884.7
-117.49	585.94
-110.17	415.04
-101.93	296.63
-79.65	180.36
-82.09	49.44
-72.94	-49.13
-45.78	-109.86
-55.85	-104.37
-71.11	-84.23
-65.31	-87.28
-54.93	-110.78
-53.1	-112.92
-55.24	-104.06
-57.37	-103.76
-49.74	-110.17
-40.59	-112.3
-41.5	-116.58
-46.08	-117.49
-41.81	-119.63
-39.37	-119.02
-43.95	-120.24
-36.93	-118.71
-36.93	-114.14
-36.93	-112.92
-35.1	-115.05
-35.4	-115.66
-33.87	-116.27
-29.6	-115.05
-27.47	-110.78
-28.69	-103.45
-24.72	-100.1
-25.63	-101.32
-25.02	-101.93
-22.28	-106.2
-23.5	-105.59
-19.53	-97.35
-17.4	-98.57
-14.04	-101.01
-10.38	-98.27
-6.71	-100.4
-8.54	-99.49
-6.41	-93.08
-3.36	-91.25
-2.44	-90.94
7.02	-85.45
7.63	-81.48
11.6	-71.41
13.12	-68.97
13.43	-63.48
21.36	-52.49
27.16	-45.47
32.65	-35.71
40.89	-23.19
48.22	-13.12
57.07	-2.75
66.83	12.21
75.68	31.74
85.45	49.44
95.52	66.83
111.08	86.36
124.21	98.88
136.41	117.49
148.32	144.04
153.5	159.61
160.83	181.58
170.59	197.45
171.51	201.72
182.5	221.56
186.77	233.76
180.66	233.76
185.24	237.43
178.22	225.83
168.15	212.4
163.27	207.21
148.32	199.28
135.5	185.55
122.99	163.88
107.73	134.89
99.79	109.86
86.67	84.84
71.72	59.2
67.44	39.98
56.15	16.17
47.61	-4.88
43.03	-19.53
31.13	-32.35
25.33	-44.25
23.19	-56.46
16.78	-70.8
13.73	-81.79
10.07	-86.98
4.88	-92.47
3.97	-91.25
7.93	-84.53
3.97	-93.08
1.53	-97.66
1.53	-101.01
-0.31	-106.2
-2.44	-99.18
-2.75	-100.1
-3.36	-107.42
-7.02	-112
-7.02	-122.68
-3.97	-118.71
-8.54	-113.83
-7.63	-113.22
-2.14	-108.64
-3.36	-110.47
-3.05	-113.22
-6.1	-112
-16.78	-115.97
-18.62	-120.24
-16.78	-120.54
-14.65	-124.51
-9.16	-129.7
-11.29	-132.45
-11.9	-125.73
-9.46	-125.43
-8.24	-122.07
-9.46	-116.27
-3.97	-121.15
-5.19	-116.27
-8.54	-107.12
-3.36	-112.61
	
