-58.59	11.29
-60.42	12.51
-62.56	21.97
-63.78	31.74
-64.09	33.26
-63.48	25.02
-62.56	16.48
-61.95	17.4
-61.04	28.08
-60.42	39.37
-59.81	41.2
-59.51	31.43
-60.12	18.01
-61.65	11.29
-63.48	14.65
-64.09	23.8
-63.17	31.13
-61.34	31.74
-59.2	27.16
-58.59	23.19
-58.9	22.89
-59.2	26.86
-58.59	31.43
-57.07	33.87
-56.76	32.65
-57.98	29.3
-60.73	25.02
-63.17	20.75
-65	16.78
-67.14	14.04
-71.11	14.65
-73.85	22.89
-68.36	42.42
-44.86	78.13
4.27	133.06
80.57	213.01
182.8	321.96
308.53	455.63
454.41	588.99
606.08	671.08
723.88	636.29
751.34(R)	450.13
649.72	149.84
429.38	-160.22
159.3	-357.06
-68.36	-370.79
-197.14	-230.71
-237.73	-44.25
-247.5	75.07
-276.49	71.11
-331.73	-36.01
-384.22	-174.56
-398.25	-267.94
-362.24	-274.96
-292.97	-204.77
-218.81	-100.4
-160.22	-9.46
-123.9	39.98
-105.9	49.74
-97.66	42.11
-92.47	37.23
-88.5	42.72
-85.14	54.32
-83.01	64.09
-80.57	69.89
-76.9	72.94
-73.24	76.29
-71.11	80.87
-70.8	83.31
-71.11	81.18
-70.5	74.16
-68.36	66.53
-66.53	62.56
-66.22	64.39
-67.44	70.5
-69.58	76.9
-70.8	82.4
-70.8	86.98
-69.58	92.16
-68.05	98.57
-66.53	104.68
-64.7	109.25
-61.65	111.69
-58.29	113.53
-55.54	115.36
-54.63	116.27
-55.54	115.66
-57.07	112.61
-57.98	109.56
-57.68	108.95
-56.76	110.78
-56.15	114.14
-56.46	117.19
-57.68	119.02
-58.9	121.15
-58.9	124.82
-57.98	129.09
-56.76	133.36
-57.07	136.11
-58.59	138.24
-61.04	141.6
-63.17	148.01
-63.78	156.56
-62.87	166.93
-61.65	177.61
-60.12	188.6
-58.29	199.89
-55.24	211.18
-50.35	222.47
-43.64	233.46
-35.4	243.23
-26.25	250.85
-17.4	255.74
-8.54	256.96
0	253.6
8.54	245.06
16.48	232.85
22.89	218.81
26.86	205.99
27.47	195.62
25.33	187.38
21.36	179.75
17.4	171.2
13.73	162.05
10.99	152.89
8.54	142.82
6.1	132.45
3.97	121.15
2.44	110.17
2.14	101.01
2.75	93.99
3.66	89.72
3.97	86.67
3.66	84.84
3.05	83.01
1.83	81.18
0.31	78.43
-0.92	74.77
-1.22	71.41
-0.61	68.66
0.31	66.53
1.22	65
0.61	62.56
-0.92	59.51
-3.05	56.46
-4.88	54.93
-5.49	55.85
-5.49	58.9
-5.19	61.95
-5.49	63.78
-6.71	64.09
-8.24	63.17
-9.46	62.56
-8.85	62.87
-7.32	64.09
-4.88	65.61
-2.75	66.83
-1.83	67.75
-1.83	68.05
-3.05	67.75
-3.97	67.14
-4.58	66.22
-4.88	66.53
-5.19	69.89
-6.1	76.6
-8.54	85.45
-11.29	93.69
-14.04	100.1
-16.17	104.06
-16.78	106.51
-16.17	108.64
-14.95	110.17
-13.43	109.25
-12.21	106.2
-11.6	101.93
-11.6	98.57
-11.9	98.27
-12.21	100.71
-12.82	104.37
-12.51	106.81
-11.9	106.81
-11.29	104.37
-10.68	101.01
-11.29	97.05
-12.51	93.38
-14.04	89.11
-15.56	84.84
-17.7	81.48
-21.67	80.87
-28.69	83.92
-37.23	91.86
-42.42	105.59
-35.4	127.56
-8.54	161.44
43.64	210.27
122.38	277.1
228.58	366.52
362.24	476.99
520.32	589.9
686.34	661.62
815.43	630.49
846.56(R)	459.9
738.22	178.22
503.23	-115.97
216.37	-303.65
-23.8	-316.16
-157.78	-183.11
-198.97	-10.99
-207.21	92.16
-233.76	80.87
-284.42	-14.04
-327.15	-119.32
-327.45	-170.29
-278.32	-146.79
-201.72	-71.41
-128.48	14.04
-78.13	75.38
-53.1	99.79
-45.47	97.35
-43.95	87.59
-42.42	83.92
-39.06	88.5
-36.01	95.83
-33.87	100.4
-32.35	101.01
-30.52	100.1
-28.69	99.49
-27.47	99.79
-27.16	99.79
-26.86	98.27
-25.94	94.6
-24.72	89.72
-23.8	84.53
-23.8	80.26
-25.33	77.82
-26.55	77.21
-27.16	78.43
-26.55	80.87
-25.02	83.92
-23.8	86.98
-23.19	89.72
-23.5	92.47
-23.8	95.52
-23.5	98.27
-23.19	101.01
-23.19	103.15
-23.8	104.37
-25.33	104.37
-26.55	103.45
-27.16	103.15
-27.16	104.37
-27.47	108.64
-29.3	115.97
-33.26	124.82
-38.76	133.97
-43.95	143.13
-47	152.28
-47.91	161.44
-47	169.68
-46.08	175.48
-45.78	178.22
-47.3	178.22
-49.74	177.31
-52.19	178.83
-53.71	184.63
-54.02	195.01
-52.49	207.82
-49.13	219.73
-43.64	227.66
-36.01	231.63
-26.86	232.24
-16.17	230.1
-5.49	226.14
4.58	219.42
12.82	210.57
18.62	200.2
21.97	189.21
24.11	177.61
25.02	164.79
25.02	150.15
23.5	134.28
19.84	118.41
14.65	104.06
9.46	91.86
4.88	81.18
1.22	71.41
-2.14	62.56
-5.49	54.93
-8.85	49.13
-11.29	45.47
-12.51	42.11
-13.43	37.54
-14.95	31.43
-17.09	25.02
-19.84	20.45
-21.67	19.53
-22.89	21.36
-23.8	24.72
-24.41	27.47
-25.94	29.91
-27.16	32.04
-26.86	33.57
-25.33	33.87
-22.28	31.74
-19.84	27.16
-18.62	20.45
-18.92	13.43
-19.23	7.32
-19.53	3.05
-19.53	0.61
-20.45	-0.31
-21.67	0.61
-22.58	3.36
-21.67	7.32
-19.23	11.9
-16.48	15.87
-14.65	18.01
-14.65	18.31
-15.87	17.4
-17.4	16.78
-17.7	18.01
-17.09	21.06
-16.48	25.63
-16.48	29.6
-17.4	32.04
-18.92	32.04
-20.75	30.82
-22.28	29.91
-23.5	29.91
-24.72	30.21
-25.63	29.3
-26.55	25.94
-27.77	21.36
-28.99	18.01
-29.6	18.31
-30.52	22.58
-31.13	30.21
-31.43	38.45
-30.82	45.17
-28.69	49.13
-25.94	48.52
-23.19	43.64
-22.28	36.01
-22.58	28.08
-23.5	22.58
-24.11	20.14
-24.41	20.45
-24.11	22.28
-24.11	25.33
-25.02	29.91
-26.86	35.1
-29.6	38.76
-31.74	37.54
-32.96	30.52
-32.96	20.45
-33.87	13.43
-37.84	16.17
-43.33	32.04
-46.08	60.12
-36.93	97.05
-8.24	139.77
45.47	188.6
123.9	248.72
226.75	330.81
353.7	438.84
504.15	556.95
663.76	637.21
791.32	611.88
826.11(R)	437.62
725.4	144.65
498.66	-163.57
215.76	-360.41
-27.77	-374.45
-171.81	-238.65
-224.61	-65.61
-242	32.96
-272.22	12.51
-322.57	-91.86
-364.99	-205.38
-367.43	-263.67
-321.04	-247.8
-244.45	-179.44
-166.02	-97.96
-105.9	-34.79
-69.89	-3.36
-53.1	2.14
-47	-2.44
-43.33	-4.58
-39.67	-0.61
-36.32	6.1
-35.4	10.68
-36.62	11.29
-38.76	8.85
-40.89	6.1
-42.42	4.58
-43.64	5.49
-44.86	8.24
-46.08	11.6
-48.22	13.12
-51.57	11.9
-54.93	8.54
-57.07	6.71
-57.37	9.16
-56.76	18.01
-56.15	31.43
-56.46	44.25
-56.46	52.19
-55.54	54.32
-54.32	51.57
-54.32	47.61
-57.07	45.78
-61.95	47.91
-65.92	54.63
-66.83	65.31
-64.39	76.9
-61.34	85.45
-60.73	88.2
-64.39	84.84
-70.8	78.43
-77.51	73.85
-82.7	73.55
-84.84	75.68
-84.23	75.68
-82.09	71.11
-79.65	62.87
-78.43	57.07
-78.74	60.12
-79.65	71.72
-79.65	87.59
-79.04	101.62
-77.51	110.47
-76.29	115.66
-75.07	119.32
-72.33	123.6
-66.22	128.17
-56.76	132.14
-45.17	136.11
-33.26	140.38
-23.19	144.65
-14.95	146.48
-7.93	141.91
-1.83	129.7
3.36	112.3
6.41	93.69
7.63	78.74
7.32	68.97
6.41	61.65
6.41	52.49
7.02	39.06
7.32	22.58
6.1	6.71
2.44	-2.44
-3.05	-1.22
-8.54	8.24
-13.12	18.92
-16.17	23.5
-18.31	16.78
-20.14	0.61
-22.28	-17.7
-23.19	-28.38
-21.97	-27.77
-18.92	-20.45
-14.95	-16.48
-12.82	-22.58
-13.43	-35.4
-16.78	-44.25
-20.45	-40.59
-21.97	-27.77
-21.67	-18.31
-20.75	-23.19
-20.75	-40.28
-21.97	-57.37
-23.19	-62.56
-23.5	-54.02
-22.58	-39.67
-21.67	-30.82
-21.36	-30.52
-21.36	-36.32
-21.97	-41.5
-22.28	-42.42
-22.28	-39.37
-23.8	-36.32
-26.86	-36.62
-30.21	-39.06
-32.35	-40.59
-31.43	-37.23
-28.38	-28.38
-24.72	-17.7
-23.5	-10.99
-24.72	-11.9
-26.86	-20.14
-28.08	-31.43
-27.47	-39.06
-25.94	-37.23
-24.41	-25.33
-23.5	-8.54
-23.5	4.58
-24.72	8.54
-26.25	5.19
-28.08	0.92
-29.6	0.92
-30.82	6.71
-32.35	15.87
-34.18	23.5
-35.4	24.72
-36.01	17.09
-36.01	3.66
-36.62	-9.16
-37.84	-15.56
-38.45	-15.26
-36.93	-13.12
-33.57	-14.34
-30.82	-16.78
-30.82	-14.95
-32.96	-7.02
-36.01	-0.31
-37.23	-3.36
-36.32	-18.31
-35.1	-34.79
-35.1	-40.28
-37.23	-30.82
-39.67	-15.56
-41.2	-8.24
-40.59	-14.95
-39.67	-31.43
-39.37	-47.3
-40.89	-55.24
-43.03	-52.8
-44.25	-43.64
-43.64	-35.1
-42.42	-33.87
-41.81	-41.5
-42.72	-53.1
-44.86	-61.04
-47	-61.65
-47.61	-56.15
-46.39	-50.96
-44.56	-50.66
-42.42	-52.8
-41.5	-53.1
-42.42	-48.22
-44.56	-38.45
-46.39	-28.69
-48.22	-22.58
-50.05	-20.14
-51.88	-19.84
-53.41	-18.92
-55.54	-17.4
-57.68	-17.7
-60.12	-21.67
-62.87	-29.6
-64.09	-36.62
-63.17	-38.15
-60.42	-32.65
-57.37	-23.19
-55.85	-16.17
-55.85	-15.56
-56.76	-19.84
-56.15	-23.5
-54.32	-22.28
-52.19	-15.87
-50.66	-10.07
-50.05	-9.77
-50.05	-16.48
-49.13	-26.86
-46.69	-34.79
-44.25	-36.01
-41.81	-31.13
-40.89	-24.41
-41.2	-20.75
-41.81	-22.28
-41.5	-27.77
-39.98	-33.87
-37.23	-37.23
-35.1	-37.84
-34.48	-37.84
-36.32	-39.06
-39.06	-41.81
-42.11	-44.25
-43.64	-44.25
-43.64	-40.89
-42.42	-35.4
-41.5	-29.91
-41.2	-26.25
-41.2	-24.72
-41.2	-22.89
-39.98	-19.23
-38.15	-12.51
-36.01	-4.27
-34.48	3.36
-34.18	8.54
-34.79	11.29
-36.32	12.21
-37.84	10.68
-39.06	6.71
-40.28	0.92
-41.2	-3.97
-40.89	-4.58
-39.67	0.31
-37.23	9.77
-33.26	19.23
-28.99	25.02
-24.72	25.02
-21.36	21.06
-20.45	15.26
-22.89	10.68
-28.38	10.07
-32.65	16.17
-28.08	32.96
-6.71	62.87
36.32	108.03
102.54	169.98
191.96	252.69
304.87	360.11
441.59	484.92
596.92	596.01
744.02	632.02
827.33(R)	531.01
791.93	284.73
621.34	-35.4
358.58	-304.87
95.21	-414.12
-85.45	-341.49
-162.35	-167.54
-178.22	-14.34
-194.4	33.87
-238.95	-30.52
-295.41	-149.54
-327.15	-247.5
-310.67	-276.18
-252.69	-232.85
-179.75	-148.93
-117.8	-64.39
-77.51	-7.02
-57.98	18.31
-51.27	23.5
-48.22	24.11
-43.95	27.47
-38.45	32.35
-33.26	35.1
-30.52	35.4
-30.21	35.4
-29.91	37.23
-28.99	40.89
-26.86	45.47
-23.8	48.83
-20.75	50.05
-18.62	48.83
-17.4	45.17
-17.4	40.59
-17.7	36.01
-18.62	32.96
-19.53	32.04
-20.14	32.65
-20.45	33.87
-20.14	35.1
-20.14	36.01
-20.75	36.01
-21.67	35.4
-22.89	35.1
-23.8	35.71
-25.02	36.93
-26.25	39.06
-27.77	41.5
-29.6	44.56
-31.13	48.52
-32.65	53.41
-34.48	59.51
-36.62	67.14
-38.15	75.07
-39.06	82.4
-38.76	87.59
-39.06	90.94
-39.67	93.38
-41.5	96.44
-43.64	100.71
-46.08	105.29
-48.22	108.34
-50.66	109.56
-54.02	109.25
-57.37	109.56
-60.73	111.39
-63.48	116.27
-64.7	125.43
-64.7	138.24
-62.87	152.89
-58.9	167.54
-51.88	181.27
-42.42	192.87
-31.13	201.42
-18.92	205.99
-7.02	206.3
3.36	202.94
11.6	197.14
17.7	189.82
22.58	180.66
26.25	168.46
28.99	153.2
30.21	135.5
29.3	117.19
26.55	99.49
22.28	83.31
18.31	68.97
14.65	56.15
12.21	44.25
9.77	33.57
7.02	23.5
3.97	14.34
0.61	7.02
-1.83	2.44
-3.36	1.22
-4.27	2.44
-4.88	4.58
-5.49	6.1
-6.1	6.41
-6.41	5.49
-6.71	3.97
-6.71	1.53
-7.32	-1.83
-7.93	-6.1
-9.46	-11.6
-11.6	-16.78
-14.34	-20.45
-17.09	-21.06
-19.53	-18.92
-21.06	-14.65
-21.36	-10.07
-20.75	-5.19
-19.23	0.31
-16.78	6.71
-13.43	14.34
-9.46	21.97
-6.71	27.47
-6.41	29.3
-8.85	27.16
-12.21	21.97
-14.65	15.87
-14.34	10.68
-11.9	7.02
-9.77	5.49
-8.54	4.27
-9.16	2.75
-10.38	0.61
-11.9	-1.83
-13.43	-2.75
-14.95	-1.22
-16.17	2.14
-17.09	5.19
-17.4	6.71
-17.09	6.41
-17.09	6.41
-17.09	8.85
-16.17	14.34
-14.95	19.84
-13.43	22.58
-13.43	21.06
-14.34	17.09
-16.17	13.73
-17.09	12.51
-16.78	13.12
-15.87	11.9
-15.56	8.54
-16.17	3.97
-17.4	-0.31
-19.23	-2.44
-21.06	-2.75
-23.5	-2.44
-26.25	-2.44
-28.99	-1.83
-29.91	-0.31
-28.99	1.22
-26.86	1.53
-24.72	-2.14
-23.8	-9.46
-24.11	-18.31
-24.41	-25.33
-24.72	-28.69
-24.11	-29.3
-24.11	-29.3
-25.02	-30.52
-27.47	-32.65
-30.52	-34.48
-33.26	-34.79
-34.79	-33.26
-35.1	-31.74
-34.79	-31.43
-34.48	-32.04
-35.1	-33.57
-36.01	-35.71
-37.54	-37.54
-38.45	-39.37
-38.76	-40.28
-37.54	-39.67
-35.71	-36.32
-33.57	-30.82
-32.04	-25.63
-31.74	-21.36
-32.35	-18.31
-33.57	-15.87
-34.79	-13.73
-36.01	-11.9
-38.76	-10.68
-44.25	-10.07
-50.66	-8.24
-53.71	-0.31
-45.17	19.23
-17.7	54.32
32.65	106.2
107.12	176.39
205.69	268.25
329.9	382.39
479.43	503.54
642.7	586.85
778.81	564.27
826.11(R)	391.85
737.61	95.52
518.19	-222.17
235.29	-433.35
-12.51	-460.51
-159	-330.81
-209.66	-153.2
-222.17	-41.81
-251.16	-47.3
-307.31	-142.52
-360.72	-256.04
-375.98	-321.04
-339.66	-311.28
-270.08	-243.23
-195.62	-155.03
-137.63	-82.09
-102.84	-40.89
-86.98	-27.47
-81.79	-26.86
-79.65	-25.33
-77.21	-20.45
-74.77	-14.95
-73.55	-12.51
-72.94	-12.51
-72.33	-12.82
-70.8	-11.6
-69.58	-9.16
-68.97	-7.93
-69.27	-9.77
-70.5	-13.73
-72.02	-17.09
-72.94	-17.4
-73.55	-14.04
-74.16	-8.85
-75.38	-3.97
-76.29	-0.61
-76.6	1.22
-75.38	3.36
-72.94	5.49
-69.58	6.41
-67.14	5.8
-66.22	3.97
-67.44	2.44
-69.58	3.36
-71.11	7.32
-71.41	13.43
-70.5	18.62
-70.5	21.97
-72.02	23.19
-75.07	23.5
-78.13	24.72
-81.18	27.77
-84.23	32.04
-87.89	37.23
-91.86	43.64
-95.52	51.88
-97.96	61.04
-98.88	70.5
-99.49	78.74
-100.4	85.75
-101.32	92.77
-102.23	100.71
-101.93	109.56
-100.71	118.41
-97.96	125.73
-93.99	132.14
-88.5	138.55
-81.48	145.87
-74.16	153.81
-67.14	161.13
-60.73	165.41
-54.02	165.41
-45.78	162.05
-35.71	157.17
-24.72	151.67
-14.95	146.18
-7.32	139.47
-2.14	131.23
1.83	120.85
4.88	108.64
7.32	94.91
7.63	79.96
4.88	63.17
-0.31	45.17
-7.02	26.55
-12.82	9.77
-17.09	-3.66
-20.14	-12.51
-22.89	-18.01
-25.94	-22.28
-29.3	-26.25
-32.65	-29.3
-34.79	-30.52
-35.71	-29.91
-36.01	-28.38
-36.32	-28.08
-37.23	-29.3
-38.76	-31.13
-40.59	-32.65
-42.42	-34.48
-43.95	-37.23
-45.17	-41.5
-46.08	-45.78
-46.39	-49.13
-46.08	-50.96
-45.78	-52.19
-45.78	-54.63
-46.39	-58.59
-47.61	-63.17
-48.83	-65.92
-49.74	-67.14
-50.05	-67.75
-50.05	-68.05
-49.13	-67.44
-48.83	-62.26
-50.66	-50.35
-54.32	-31.74
-55.85	-8.24
-47.3	18.62
-16.78	50.35
44.86	93.38
142.52	158.39
274.96	251.46
436.1	362.85
612.49	455.93
770.26	473.63
852.36(R)	370.18
804.14	150.15
610.66	-119.32
320.43	-334.78
30.82	-412.6
-170.9	-342.71
-261.54	-191.65
-285.34	-59.2
-303.96	-16.78
-343.63	-71.11
-385.74	-170.29
-394.59	-244.45
-352.78	-249.94
-276.79	-191.35
-198.06	-108.34
-140.08	-43.33
-106.81	-17.09
-91.55	-23.5
-85.45	-40.89
-81.79	-51.88
-77.82	-51.27
-74.16	-44.56
-72.02	-37.84
-71.41	-34.18
-72.02	-31.43
-72.33	-26.25
-70.5	-17.7
-66.22	-7.63
-60.42	0
-55.24	2.44
-52.19	1.53
-51.27	1.22
-52.49	5.19
-54.93	12.82
-57.07	19.84
-58.29	21.06
-58.29	15.87
-57.37	8.24
-56.76	3.05
-57.37	3.05
-58.59	7.02
-59.81	11.6
-60.12	15.26
-60.12	19.23
-61.04	25.33
-63.17	34.48
-65.92	44.25
-67.75	50.96
-68.05	53.41
-67.44	54.02
-66.22	57.37
-65.31	65.92
-65	77.82
-65	87.89
-66.22	90.94
-68.05	86.98
-70.5	80.57
-72.63	77.82
-73.55	82.4
-72.63	94.6
-70.5	111.39
-67.44	127.56
-64.7	137.94
-61.34	139.77
-56.46	136.41
-48.83	133.67
-38.15	137.33
-26.25	148.01
-14.04	158.39
-2.44	160.52
9.16	151.06
19.23	132.75
26.55	113.53
30.52	101.62
32.96	97.96
35.4	98.57
38.15	94.91
39.37	82.09
37.23	59.51
31.74	31.43
24.11	4.88
16.48	-15.56
9.77	-27.16
3.97	-31.43
-0.61	-32.35
-3.66	-35.1
-5.49	-44.56
-7.32	-60.42
-8.85	-75.99
-8.85	-82.7
-7.02	-77.21
-3.05	-62.56
0.92	-48.52
2.75	-43.03
2.75	-48.52
1.22	-58.59
0	-65.31
0.61	-62.56
2.75	-52.19
5.8	-42.42
8.24	-41.5
9.46	-52.19
9.16	-68.05
7.63	-79.04
6.1	-78.74
5.49	-68.97
5.19	-56.76
5.49	-48.22
5.8	-43.64
5.8	-40.89
5.8	-37.54
6.41	-32.96
7.63	-28.69
8.54	-25.02
8.54	-22.58
8.24	-20.45
7.93	-18.62
8.54	-16.17
9.46	-12.21
10.07	-6.1
10.07	0.61
10.68	4.58
11.9	3.36
13.12	-0.92
12.82	-3.36
10.68	-0.92
7.63	7.63
5.19	18.31
3.97	25.02
3.66	24.41
2.75	18.62
-0.31	12.21
-3.66	10.99
-7.32	15.56
-9.77	22.28
-11.29	24.41
-12.51	19.23
-13.12	12.82
-13.12	11.6
-12.21	18.62
-11.29	29.91
-11.6	36.32
-13.12	31.74
-15.26	17.09
-16.48	-0.61
-16.78	-14.04
-17.09	-19.84
-18.92	-18.01
-23.5	-11.9
-30.52	-6.71
-37.23	-7.02
-40.28	-13.43
-39.37	-21.36
-35.4	-23.5
-31.43	-14.95
-30.52	1.53
-32.96	17.09
-37.23	22.58
-40.59	15.56
-41.5	0.92
-40.28	-13.73
-38.45	-21.97
-37.54	-21.97
-37.84	-16.78
-39.37	-11.6
-40.59	-9.77
-40.89	-10.68
-40.28	-10.07
-38.15	-2.75
-35.71	11.9
-32.35	27.47
-29.6	35.71
-28.69	31.74
-29.6	18.31
-32.65	2.75
-36.32	-5.8
-38.76	-4.88
-39.37	0.92
-38.76	5.49
-37.84	4.27
-38.15	-2.44
-38.76	-8.54
-39.98	-8.54
-41.2	-1.53
-41.81	8.24
-41.81	14.04
-42.72	14.04
-45.17	10.99
-49.13	11.6
-50.96	20.45
-44.56	40.89
-21.67	73.85
22.58	122.38
90.33	190.12
181.58	283.81
296.63	405.27
434.57	539.86
586.55	646.36
717.47	660.1
769.96(R)	527.65
697.94	259.7
499.88	-58.9
234.99	-303.04
-4.58	-378.42
-152.59	-283.81
-208.13	-108.95
-223.08	29.3
-249.94	58.9
-302.12	-17.7
-354	-141.3
-371.4	-239.56
-340.27	-267.33
-273.44	-222.47
-198.67	-136.11
-137.63	-48.22
-98.27	10.99
-79.65	34.48
-73.55	33.87
-71.41	26.86
-68.36	24.72
-64.09	28.38
-60.12	34.18
-57.98	38.15
-56.76	39.98
-55.54	42.42
-53.71	47
-50.96	54.02
-48.83	60.73
-47.3	64.39
-46.69	65
-46.69	63.78
-46.39	63.17
-46.08	63.78
-45.78	64.09
-45.78	62.26
-46.08	57.07
-46.69	50.35
-48.22	44.25
-50.96	41.2
-54.93	41.2
-58.9	44.25
-61.65	48.52
-61.65	53.41
-59.81	57.98
-57.37	61.34
-55.85	61.95
-55.85	59.81
-57.07	55.24
-58.29	50.35
-58.59	46.69
-57.98	45.78
-56.76	47
-55.24	49.44
-54.32	53.1
-54.32	56.76
-54.93	60.42
-55.54	62.87
-55.85	63.48
-55.85	63.17
-56.15	62.56
-56.46	64.09
-56.76	68.05
-57.07	74.46
-56.76	82.09
-57.07	89.42
-57.68	95.83
-57.37	102.84
-54.63	113.22
-48.52	127.26
-39.98	144.65
-30.52	161.74
-21.67	175.17
-13.12	183.41
-3.97	186.46
5.49	185.55
14.34	181.27
20.14	174.56
23.19	164.79
23.5	152.89
23.19	140.08
23.19	127.87
23.8	117.19
23.5	107.12
21.36	97.05
17.4	86.67
12.21	76.9
7.32	69.27
4.27	64.39
3.36	61.34
3.97	57.98
5.8	52.19
7.32	44.25
7.93	35.4
7.32	27.77
5.8	22.89
5.19	20.45
5.8	19.53
7.63	18.31
9.46	15.56
10.07	12.21
9.46	10.07
8.54	10.07
7.93	12.82
7.93	16.78
8.24	18.92
7.63	17.7
5.8	14.04
2.75	9.46
-1.22	6.41
-4.58	6.71
-5.8	9.46
-5.49	13.73
-4.27	17.09
-3.66	19.53
-5.19	20.75
-8.24	21.67
-11.9	21.67
-14.04	18.31
-13.12	7.63
-5.8	-10.99
9.77	-31.13
34.79	-41.5
69.27	-29.6
112.61	14.95
163.57	95.52
224	200.2
299.38	293.88
398.25	328.67
524.6	258.79
672	63.78
818.79	-228.27
935.36	-550.84
997.62	-831.91
1001.89	-1023.25
965.88	-1118.47
915.53	-1147.16
866.7	-1153.26
814.21	-1165.16
737.92	-1184.39
624.69	-1193.54
486.76	-1173.71
355.83	-1119.08
264.89	-1039.73
224.61	-952.45
214.84	-865.17
199.89	-773.32
153.5	-664.06
78.74	-531.92
-1.22	-383.3
-59.51	-235.9
-85.14	-108.95
-88.5	-12.82
-91.25	53.41
-108.03	97.05
-137.63	125.12
-167.54	144.04
-186.77	159.61
-193.18	178.53
-193.18	202.64
-194.09	229.19
-199.28	250.24
-205.99	261.23
-211.49	263.67
-214.84	264.28
-216.37	269.17
-216.98	279.54
-218.2	292.66
-220.64	305.79
-223.69	318.3
-226.75	331.12
-229.19	345.46
-230.71	358.89
-233.46	369.26
-238.34	375.37
-246.28	378.11
-256.65	379.94
-268.55	384.22
-280.15	392.46
-291.14	405.27
-302.12	421.75
-313.72	440.98
-326.84	461.73
-340.27	483.7
-353.7	507.2
-366.52	532.53
-378.72	558.17
-391.54	582.89
-404.97	604.86
-418.09	625.92
-430.3	648.19
-440.67	672.91
-449.52	698.85
-456.85	722.96
-462.65	742.8
-466.31	758.67
-466.31	770.87
-461.73	778.5
-452.88	779.11
-440.98	769.65
-426.94	749.51
-411.68	721.13
-394.9	689.09
-376.59	656.13
-357.06	622.86
-336.3	588.38
-315.55	550.84
-294.49	510.25
-273.44	469.06
-252.08	429.08
-231.02	391.85
-209.66	356.14
-188.6	319.82
-168.15	281.68
-148.93	242.92
-132.14	205.69
-118.1	172.42
-106.2	143.13
-95.21	116.88
-85.14	93.08
-75.07	70.8
-65.31	50.96
-55.85	33.26
-47.3	17.09
-40.89	2.14
-35.71	-11.29
-31.13	-22.89
-25.63	-32.04
-19.23	-39.37
-13.12	-45.78
-8.24	-51.57
-5.19	-56.76
-3.05	-59.81
-1.22	-60.12
0.61	-56.15
1.83	-48.22
2.44	-38.76
1.83	-31.13
0	-28.69
-2.44	-31.74
-4.27	-38.45
-5.49	-45.47
-5.19	-50.05
-4.27	-52.49
-3.66	-53.1
-4.27	-52.49
-5.8	-50.05
-7.63	-45.47
-8.85	-39.06
-8.54	-32.04
-6.71	-25.63
-4.58	-21.06
-2.44	-19.23
-0.31	-20.75
1.22	-25.94
2.44	-33.57
2.75	-41.81
2.44	-47.61
1.22	-50.35
0.31	-50.66
-0.92	-50.66
-1.83	-51.57
-2.75	-53.41
-3.66	-54.63
-3.66	-53.71
-3.36	-50.05
-2.75	-45.17
-2.14	-40.28
-2.14	-36.93
-2.14	-34.48
-2.14	-32.65
-2.14	-31.13
-1.53	-30.21
-0.92	-30.52
-0.61	-32.35
-0.61	-34.48
-0.92	-36.32
-0.92	-36.93
-0.31	-36.93
0.61	-37.23
1.22	-39.06
0.61	-42.42
-1.53	-44.86
-5.49	-44.86
-9.77	-42.72
-12.51	-40.59
-13.73	-41.2
-13.12	-45.17
-12.21	-50.96
-11.6	-56.15
-11.9	-58.9
-12.21	-58.9
-11.9	-56.76
-10.38	-53.41
-7.93	-49.44
-5.49	-45.47
-3.05	-42.42
-1.22	-40.28
-1.53	-37.84
-4.88	-32.65
-8.85	-21.97
-7.32	-3.05
9.16	26.55
47	69.27
109.56	126.34
195.62	200.81
305.79	296.63
440.37	409.24
596.62	512.7
751.04	553.89
851.14(R)	471.5
836.79	247.19
681.46	-60.73
419.31	-337.52
140.08	-470.89
-65.61	-425.42
-162.66	-267.94
-185.55	-115.36
-198.06	-57.07
-237.73	-107.73
-295.72	-215.45
-335.69	-305.79
-329.59	-329.28
-277.1	-281.37
-203.25	-192.87
-134.89	-103.76
-87.28	-43.03
-62.26	-18.01
-53.41	-16.78
-50.96	-21.67
-49.44	-21.67
-46.69	-16.48
-43.95	-10.99
-43.03	-8.85
-43.03	-9.16
-43.95	-7.93
-45.78	-2.44
-47.61	7.02
-48.52	17.7
-47.3	25.63
-43.64	28.08
-38.76	25.02
-33.87	17.7
-30.82	8.54
-29.6	-0.61
-29.91	-6.71
-31.13	-8.54
-32.04	-6.71
-32.35	-1.83
-31.43	3.66
-30.21	8.24
-28.69	11.29
-27.77	12.82
-26.86	12.21
-25.94	10.38
-25.02	8.85
-24.41	9.16
-24.11	12.82
-23.8	19.84
-23.19	26.86
-22.58	30.52
-23.5	28.99
-26.55	23.8
-31.43	17.7
-36.62	15.26
-40.28	18.62
-41.81	26.86
-41.81	37.23
-41.2	45.17
-41.5	46.69
-42.42	40.28
-43.95	30.52
-45.78	25.33
-46.39	31.43
-45.17	48.52
-42.11	69.27
-37.23	84.84
-30.82	91.25
-22.89	90.94
-14.34	89.72
-5.19	91.25
3.97	95.21
13.12	99.49
21.97	103.15
30.21	105.59
37.23	106.81
41.5	105.29
43.33	99.79
42.72	90.33
40.59	77.82
38.76	64.39
37.54	51.27
37.23	39.67
38.15	29.6
39.37	20.75
40.59	11.9
39.98	3.97
37.84	-2.14
34.79	-6.1
32.04	-7.63
30.21	-7.93
29.6	-8.85
29.3	-11.6
28.99	-16.17
28.99	-21.36
29.6	-24.72
30.82	-24.41
32.35	-18.92
34.48	-10.99
36.93	-5.49
39.67	-7.63
41.5	-18.31
41.2	-30.82
38.45	-35.4
34.48	-25.02
31.74	-2.44
31.13	19.23
33.57	28.08
36.62	21.06
37.84	5.49
36.01	-6.1
31.43	-8.24
27.16	-6.41
27.16	-11.29
35.4	-26.25
54.02	-43.33
83.62	-47.91
123.6	-26.25
172.12	31.43
229.49	124.82
299.38	235.29
387.88	322.27
501.4	335.39
639.34	232.54
788.57	7.63
924.68	-299.07
1020.81	-617.98
1060.79	-884.7
1047.97	-1060.49
1001.28	-1144.41
943.6	-1169.13
885.31	-1177.67
819.4	-1198.12
727.54	-1228.33
603.03	-1245.42
463.26	-1223.14
343.02	-1152.65
272.22	-1050.42
254.52	-941.16
262.15	-840.15
256.35	-744.93
213.93	-644.23
141.91	-532.84
66.83	-416.26
16.17	-304.26
-1.83	-204.16
-2.44	-113.53
-9.46	-25.94
-37.54	58.59
-81.48	130.31
-123.6	178.53
-148.62	203.55
-155.33	217.9
-154.11	235.29
-156.25	261.23
-166.02	289.31
-179.14	310.67
-189.21	321.96
-193.18	327.45
-193.79	332.95
-195.01	338.44
-200.5	342.41
-210.27	344.85
-221.86	350.34
-232.54	363.77
-240.78	385.74
-246.58	411.68
-250.85	434.57
-255.43	447.69
-260.62	451.05
-267.94	449.83
-277.1	452.27
-287.17	464.48
-297.24	485.84
-305.79	510.86
-313.72	531.92
-322.57	548.4
-333.25	564.58
-345.76	585.94
-359.8	613.1
-375.06	641.17
-391.24	666.2
-407.71	688.48
-423.28	710.45
-436.71	734.86
-446.78	760.8
-453.8	787.05
-457.76	813.9
-457.76	842.29
-453.8	869.45
-446.17	887.76
-435.18	891.42
-422.06	879.82
-405.88	859.68
-386.96	837.71
-366.21	815.73
-344.54	788.27
-322.27	748.6
-299.38	696.72
-275.27	639.04
-251.46	583.8
-229.19	534.06
-210.88	487.98
-195.92	443.12
-182.5	398.56
-166.93	357.67
-147.71	321.04
-124.51	285.34
-101.32	245.67
-80.26	202.03
-62.87	161.44
-48.22	131.84
-34.79	116.88
-21.06	113.83
-7.63	115.66
4.27	116.58
14.34	112.61
22.58	101.93
29.6	84.23
34.79	61.04
38.45	36.01
41.2	12.82
43.33	-6.71
44.86	-21.67
45.47	-28.99
45.47	-22.89
45.47	-0.31
47	33.26
50.05	60.73
53.41	65.61
55.85	44.56
57.07	10.38
56.46	-17.09
54.63	-23.19
51.57	-7.63
48.83	18.01
47.3	39.98
48.52	49.44
51.57	45.17
53.41	31.13
52.8	14.95
50.05	3.05
47	-1.53
45.47	-0.92
45.17	1.22
43.95	3.66
40.89	6.41
36.62	10.07
32.04	12.21
28.69	10.07
27.47	3.05
27.77	-5.8
29.6	-10.68
32.65	-9.77
35.4	-6.1
36.62	-5.19
35.71	-9.46
32.96	-17.09
29.3	-23.19
26.55	-23.8
25.02	-18.62
25.02	-10.68
26.55	-3.36
28.38	1.53
29.91	2.44
30.52	-0.31
29.6	-5.49
28.38	-11.29
27.16	-16.17
27.16	-19.53
27.47	-21.67
28.38	-23.19
28.99	-23.8
29.6	-22.58
29.91	-19.23
30.52	-14.34
31.13	-9.46
32.04	-5.8
32.96	-3.66
34.48	-2.75
35.4	-2.14
36.32	-0.61
36.93	1.53
36.93	3.05
36.93	3.05
36.32	1.22
34.79	-1.53
32.35	-5.19
29.3	-8.85
25.02	-11.9
19.53	-12.82
14.34	-9.16
14.04	3.05
25.63	28.38
55.85	69.89
108.64	130.92
186.16	215.15
288.7	326.54
417.48	459.9
567.93	590.82
720.83	666.81
17.4	85.75
13.73	73.85
10.38	62.56
7.32	50.66
4.88	38.15
3.05	25.94
1.22	16.17
-2.14	9.77
-6.41	7.02
-10.38	6.1
-13.12	5.19
-14.65	2.75
-15.87	-0.31
-17.09	-3.97
-18.62	-7.32
-19.53	-11.29
-18.62	-16.48
-17.09	-22.28
-15.26	-28.38
-13.73	-32.96
-12.82	-35.4
-11.6	-35.71
-10.99	-34.18
-10.68	-32.35
-11.9	-30.82
-14.04	-29.91
-15.26	-28.69
-14.95	-26.86
-12.21	-23.8
-8.85	-20.45
-6.41	-18.92
-6.41	-20.14
-7.93	-23.8
-9.46	-29.6
-10.07	-35.4
-9.77	-39.67
-9.77	-41.2
-10.38	-39.06
-11.29	-35.1
-12.51	-30.82
-13.12	-26.55
-13.12	-21.67
-11.9	-14.65
-10.07	-6.1
-7.93	1.22
-7.02	4.88
-7.02	5.19
-8.85	4.58
-12.82	6.41
-18.62	14.34
-23.8	30.21
-22.28	55.24
-5.8	90.03
34.18	134.89
101.93	190.12
198.97	258.48
324.4	342.41
475.46	432.13
640.26	492.25
784	464.17
846.86(R)	301.82
778.2	23.5
571.9	-279.54
285.95	-484.31
19.23	-510.86
-150.76	-375.98
-215.45	-178.83
-228.58	-29.6
-250.55	14.34
-302.12	-36.62
-357.67	-127.87
-378.72	-201.42
-347.6	-222.47
-278.93	-189.82
-202.03	-126.04
-140.08	-62.26
-100.71	-21.36
-79.96	-9.16
-70.8	-14.65
-66.53	-23.19
-63.78	-26.25
-61.04	-23.5
-57.98	-17.7
-54.02	-10.68
-49.44	-3.66
-44.25	2.14
-39.67	5.49
-36.62	4.88
-36.32	0.31
-38.76	-6.71
-42.42	-13.12
-46.08	-15.56
-47.61	-12.21
-47.3	-4.58
-45.78	3.97
-44.25	9.77
-43.33	12.51
-43.03	13.12
-42.72	14.04
-42.72	15.56
-43.03	17.4
-43.33	17.7
-44.25	16.78
-45.78	14.95
-47.61	13.73
-49.13	14.04
-49.74	15.87
-50.35	19.84
-51.57	25.02
-54.02	31.43
-56.76	38.45
-58.9	45.47
-60.12	53.41
-60.73	61.65
-61.04	69.89
-62.26	77.21
-64.09	82.4
-67.14	85.14
-70.19	85.75
-72.63	86.06
-73.85	88.2
-73.55	93.38
-72.02	101.62
-69.58	112.3
-65.92	124.21
-60.42	135.8
-51.88	145.87
-40.89	153.81
-28.38	157.47
-15.56	155.94
-3.97	148.32
5.8	136.41
13.73	122.38
18.92	108.64
21.36	95.52
21.97	83.31
21.36	71.72
20.75	60.42
20.75	50.66
20.75	41.81
19.53	32.65
16.17	22.58
11.6	11.6
6.71	0.31
2.75	-9.77
-0.92	-18.62
-4.27	-26.25
-8.24	-33.26
-11.6	-38.76
-13.73	-42.42
-14.65	-43.95
-14.95	-43.95
-16.48	-44.25
-19.53	-46.39
-23.5	-49.44
-26.55	-52.19
-27.47	-54.02
-26.86	-55.24
-26.25	-56.76
-26.86	-59.81
-28.38	-63.48
-29.91	-67.14
-29.91	-69.27
-28.99	-70.8
-27.16	-71.72
-25.94	-72.02
-25.94	-71.41
-26.25	-68.66
-26.25	-64.09
-25.33	-57.68
-23.8	-52.19
-22.89	-49.13
-22.58	-50.35
-22.89	-53.1
-23.5	-54.63
-23.19	-51.57
-22.28	-43.95
-21.36	-35.1
-20.75	-28.99
-20.45	-27.77
-20.14	-30.82
-20.14	-35.1
-20.75	-38.15
-21.97	-38.15
-23.8	-35.1
-24.72	-30.52
-24.41	-26.25
-22.28	-24.41
-19.84	-25.63
-18.62	-29.3
-19.53	-34.18
-22.58	-38.76
-26.25	-41.2
-28.99	-40.59
-30.52	-37.84
-31.43	-34.48
-32.04	-31.43
-32.65	-28.99
-32.65	-26.25
-31.74	-22.28
-29.91	-17.4
-28.08	-12.82
-27.77	-10.38
-29.6	-11.6
-33.26	-17.09
-36.32	-25.63
-37.84	-34.79
-37.54	-40.28
-36.62	-40.28
-36.62	-34.18
-37.84	-24.41
-39.06	-14.95
-38.45	-8.24
-36.01	-5.19
-32.35	-5.19
-29.6	-6.41
-28.08	-8.85
-28.08	-11.9
-28.99	-16.17
-30.52	-21.36
-32.65	-26.25
-34.79	-28.08
-35.71	-25.63
-35.4	-18.92
-34.18	-10.68
-32.96	-4.58
-32.35	-2.44
-33.26	-3.66
-34.79	-6.41
-37.23	-7.93
-40.89	-6.1
-43.33	0.61
-39.37	15.87
-21.97	41.81
15.56	81.18
76.6	134.89
162.05	206.6
272.22	300.6
406.8	412.6
563.66	517.58
720.83	562.44
826.42(R)	486.15
817.57	270.69
663.15	-28.08
393.98	-298.46
99.79	-430.6
-121.46	-387.88
-227.66	-232.54
-251.77	-79.35
-261.54	-19.53
-299.68	-74.16
-360.41	-194.7
-406.19	-305.18
-404.36	-346.98
-353.39	-306.7
-275.88	-212.4
-200.5	-109.86
-143.74	-36.01
-108.95	-3.97
-90.94	-2.75
-82.09	-11.6
-77.21	-15.87
-74.16	-12.82
-72.63	-6.1
-72.94	-1.22
-72.94	0.31
-72.33	-1.83
-70.8	-5.8
-69.58	-9.77
-69.27	-10.99
-69.89	-9.46
-71.11	-6.1
-72.63	-2.75
-74.16	-2.14
-76.29	-4.88
-79.04	-10.38
-81.79	-17.09
-83.62	-23.19
-83.31	-27.77
-81.79	-29.91
-80.87	-30.21
-81.79	-28.69
-84.23	-25.63
-86.36	-20.14
-86.67	-11.6
-85.14	0.31
-82.7	13.12
-80.57	23.5
-78.74	26.86
-78.13	22.58
-78.74	14.04
-82.09	5.19
-87.89	-1.83
-94.91	-8.54
-101.32	-16.17
-104.98	-22.28
-105.9	-19.23
-105.9	-1.22
-106.81	28.69
-108.64	60.12
-110.17	80.57
-109.86	83.31
-107.42	72.63
-103.15	60.12
-98.57	55.85
-94.6	64.09
-90.03	80.87
-84.53	98.57
-77.21	111.39
-67.75	119.32
-56.15	125.73
-43.64	134.28
-31.43	144.04
-21.67	148.93
-14.04	141.91
-7.93	122.99
-1.53	98.57
5.19	78.74
10.68	70.19
13.73	69.89
13.73	68.66
12.21	57.98
9.46	35.1
5.8	4.58
0.31	-25.33
-6.41	-47.91
-12.82	-60.12
-17.4	-61.95
-19.84	-53.71
-21.97	-36.93
-25.02	-16.78
-28.69	-2.44
-31.43	-5.19
-32.65	-30.82
-33.87	-74.46
-36.01	-120.54
-39.67	-151.37
-43.64	-158.08
-46.39	-142.21
-46.69	-114.14
-45.78	-84.23
-45.47	-60.42
-46.08	-47
-47	-45.47
-47.3	-54.93
-45.78	-71.41
-42.72	-87.59
-37.84	-95.83
-31.74	-93.99
-25.94	-84.84
-22.89	-75.07
-23.8	-70.19
-28.08	-70.5
-32.65	-72.02
-33.26	-71.41
-28.99	-69.27
-22.58	-67.75
-17.7	-68.66
-16.48	-69.58
-18.31	-66.53
-21.67	-59.81
-24.41	-54.02
-26.25	-54.32
-25.33	-61.95
-21.97	-72.33
-18.01	-78.43
-15.56	-75.68
-17.7	-64.09
-22.89	-47.61
-28.38	-32.35
-31.13	-23.19
-30.52	-23.5
-28.08	-31.43
-26.86	-41.5
-28.08	-49.44
-31.43	-53.1
-34.48	-54.63
-35.4	-55.24
-34.18	-54.63
-31.43	-54.02
-28.99	-55.54
-28.38	-60.42
-29.6	-68.36
-31.74	-74.77
-34.48	-75.99
-37.23	-71.72
-38.45	-64.7
-37.84	-58.29
-35.4	-53.1
-32.35	-48.52
-29.6	-43.95
-27.77	-39.06
-26.86	-36.01
-25.63	-34.79
-23.19	-34.79
-20.14	-34.48
-17.4	-32.65
-15.56	-27.47
-15.26	-18.92
-15.87	-10.38
-17.09	-6.1
-17.09	-8.85
-16.17	-16.78
-15.26	-22.28
-14.65	-20.14
-15.56	-11.29
-16.78	-4.58
-17.4	-8.54
-17.09	-22.89
-16.17	-39.67
-16.48	-48.22
-17.7	-43.64
-19.53	-29.6
-20.75	-14.65
-21.06	-6.41
-21.36	-6.71
-22.28	-13.12
-24.41	-21.36
-27.16	-27.47
-30.21	-30.21
-32.96	-30.82
-35.71	-32.04
-38.45	-36.01
-40.59	-43.33
-41.81	-51.27
-42.42	-56.46
-42.42	-56.46
-42.72	-51.57
-43.64	-44.25
-43.95	-36.93
-43.03	-31.13
-39.98	-25.63
-35.4	-20.14
-29.91	-14.95
-25.33	-10.99
-22.89	-9.46
-22.58	-10.38
-23.5	-11.9
-23.5	-11.9
-22.28	-10.38
-20.14	-7.02
-18.31	-3.36
-18.31	-0.92
-20.75	0
-25.02	0.61
-28.08	2.75
-24.11	12.21
-6.1	34.18
32.35	73.85
93.69	133.36
178.83	215.15
288.7	321.35
424.8	444.95
582.28	558.78
734.56	606.08
824.89(R)	523.99
794.37	295.72
621.64	-17.4
349.43	-295.41
72.63	-422.97
-119.63	-364.38
-202.33	-187.99
-219.73	-14.95
-237.73	59.2
-288.09	11.6
-353.09	-110.78
-392.15	-231.02
-378.72	-289.31
-318.6	-269.17
-239.87	-193.79
-169.68	-104.68
-121.77	-38.15
-95.83	-7.63
-84.53	-3.66
-78.13	-6.41
-71.41	-1.83
-62.26	10.38
-53.1	23.5
-46.08	31.43
-41.81	32.96
-39.67	31.13
-38.45	30.52
-36.32	32.96
-32.65	36.93
-27.47	40.28
-22.58	41.5
-19.23	40.89
-18.01	39.67
-18.62	39.37
-19.23	40.28
-19.23	42.11
-18.01	44.86
-15.56	47.61
-13.12	50.05
-11.29	50.96
-10.99	50.35
-12.51	48.52
-14.95	46.69
-17.4	46.39
-19.23	48.83
-20.14	54.02
-21.06	59.81
-23.19	64.39
-25.94	67.44
-28.99	69.58
-31.13	72.02
-32.04	74.77
-32.65	77.51
-33.87	78.13
-36.62	76.29
-39.98	72.63
-43.95	68.36
-47.3	65.61
-50.05	66.22
-52.8	69.58
-55.54	75.38
-58.9	82.4
-62.56	90.33
-65.31	100.1
-65.61	112.3
-63.17	126.34
-57.68	141.3
-49.74	154.42
-40.59	165.41
-30.52	174.26
-19.84	182.19
-8.54	189.21
2.75	194.7
14.04	196.23
24.41	193.48
33.26	187.68
40.28	179.75
45.47	171.2
49.13	161.74
51.57	150.76
52.19	137.94
50.35	123.6
47	108.64
42.11	93.69
38.15	79.65
35.1	66.83
32.35	56.46
28.99	48.52
24.41	42.42
18.62	37.54
13.12	34.48
9.16	32.04
7.32	29.91
7.02	26.55
5.8	21.06
3.05	14.04
-1.53	7.32
-6.1	1.83
-9.16	-2.14
-10.38	-4.58
-10.07	-6.41
-10.38	-7.02
-11.6	-6.71
-14.04	-4.58
-16.48	0.31
-17.09	8.24
-15.26	18.92
-11.29	28.38
-6.41	33.26
-1.53	31.43
2.14	25.02
4.27	17.7
4.58	13.73
3.97	13.43
3.36	15.87
3.97	18.31
5.49	20.14
7.32	22.28
9.77	24.72
12.82	28.08
15.56	31.43
17.7	33.87
18.31	35.1
17.7	35.71
16.48	35.71
14.95	36.32
13.12	37.54
11.29	39.37
8.85	41.81
6.71	44.25
6.1	46.39
6.41	47.91
7.02	48.22
6.41	48.22
4.27	48.22
0.92	47.61
-2.75	45.47
-6.71	40.89
-10.07	34.18
-13.43	26.86
-16.78	21.97
-19.84	21.06
-23.19	22.89
-26.55	25.63
-29.6	27.16
-31.43	28.08
-31.43	30.52
-28.99	35.1
-25.02	39.98
-21.06	42.42
-18.01	41.5
-16.78	38.45
-16.17	35.71
-16.48	34.48
-16.48	33.87
-16.48	32.96
-16.78	29.91
-17.4	25.63
-17.7	21.36
-17.7	18.01
-18.01	15.56
-18.62	13.73
-20.14	13.12
-21.97	13.43
-24.11	15.87
-26.86	20.45
-31.43	28.38
-36.01	40.28
-36.32	58.29
-25.63	84.23
3.05	119.63
54.93	166.32
131.84	227.05
234.68	305.79
364.38	402.83
518.49	502.93
682.37	563.66
813.6	524.6
849.91(R)	350.04
746.46	71.11
512.08	-213.62
219.42	-386.35
-30.52	-383
-173.03	-237.43
-218.2	-55.54
-227.05	58.59
-254.82	59.81
-310.36	-27.47
-361.33	-138.85
-371.7	-212.1
-331.12	-218.51
-258.48	-166.93
-184.02	-89.72
-126.65	-21.06
-92.16	19.23
-75.07	31.13
-68.05	28.99
-64.09	26.55
-61.34	29.3
-58.9	35.71
-57.07	43.03
-55.85	48.83
-54.32	52.19
-52.8	53.1
-51.88	51.57
-51.57	49.13
-51.27	46.08
-50.35	43.95
-49.13	42.72
-47.61	42.72
-46.08	43.64
-45.47	44.86
-45.47	45.78
-46.08	45.78
-47.3	44.56
-49.13	42.42
-51.27	41.2
-53.1	42.11
-54.63	44.86
-55.24	49.44
-54.93	54.93
-54.32	60.42
-53.71	65.31
-53.71	68.97
-54.32	70.8
-55.54	70.8
-56.76	70.19
-57.37	71.41
-58.29	75.68
-59.2	82.7
-61.04	91.25
-62.87	98.88
-64.7	105.29
-67.14	111.69
-70.5	118.41
-75.99	124.51
-82.4	129.39
-87.89	132.14
-91.25	133.36
-92.16	136.11
-90.94	141.6
-88.2	151.37
-84.53	163.88
-79.65	177.31
-73.24	190.12
-64.7	201.11
-54.02	209.66
-41.2	214.23
-28.08	213.01
-16.17	205.99
-6.41	194.4
0.92	180.36
6.41	166.32
10.68	151.98
13.43	136.41
14.04	118.41
12.21	98.88
9.16	79.96
4.88	63.48
0.92	50.05
-3.36	38.15
-7.63	25.94
-13.12	13.73
-18.92	2.14
-25.02	-7.32
-29.6	-13.73
-32.35	-17.7
-32.35	-20.75
-31.74	-24.72
-31.74	-29.91
-33.26	-36.01
-36.62	-41.5
-39.67	-45.17
-40.59	-47
-38.76	-46.69
-34.79	-45.17
-30.52	-43.03
-26.86	-39.98
-23.8	-36.93
-20.75	-33.26
-17.4	-29.3
-14.34	-25.02
-11.6	-21.06
-10.38	-17.7
-10.68	-16.48
-11.6	-17.4
-12.21	-19.23
-12.51	-20.14
-11.9	-19.23
-10.68	-16.78
-8.85	-14.04
-7.32	-11.6
-6.1	-9.46
-4.88	-7.02
-3.97	-4.27
-3.05	-2.14
-2.44	-1.53
-2.14	-2.44
-2.14	-3.97
-3.36	-5.8
-4.88	-7.32
-7.63	-9.46
-10.38	-12.21
-13.43	-15.26
-15.87	-18.31
-18.01	-20.14
-20.14	-21.36
-21.67	-21.36
-22.58	-20.14
-22.28	-17.4
-21.67	-14.04
-21.36	-11.29
-22.28	-10.68
-24.41	-12.51
-27.16	-17.4
-29.6	-23.8
-31.13	-28.99
-31.74	-31.13
-31.43	-29.6
-31.74	-25.63
-32.65	-21.06
-34.48	-16.78
-35.71	-12.21
-36.01	-6.41
-34.48	0.61
-31.13	6.41
-27.16	8.54
-24.11	6.41
-22.89	1.53
-24.11	-3.05
-26.86	-5.8
-29.6	-6.71
-30.52	-6.41
-28.08	-5.49
-23.5	-3.97
-18.62	-2.75
-14.95	-1.83
-14.04	-2.44
-14.95	-4.58
-16.78	-7.63
-18.31	-10.99
-19.23	-14.04
-19.84	-15.56
-20.45	-16.17
-21.67	-15.87
-23.19	-16.17
-24.72	-16.78
-26.86	-17.7
-29.3	-18.62
-31.74	-19.23
-32.96	-19.53
-33.26	-19.53
-31.74	-19.23
-29.3	-17.7
-25.94	-14.95
-23.5	-11.6
-22.28	-9.16
-23.19	-9.16
-25.63	-11.9
-28.08	-16.78
-30.82	-21.36
-33.57	-23.19
-38.76	-21.36
-46.39	-15.26
-53.71	-4.27
-53.71	13.43
-37.84	41.2
1.53	81.79
67.75	136.11
159.3	206.3
274.96	295.72
414.12	401.92
573.73	503.85
733.34	552.37
842.90(R)	485.23
840.76	278.93
694.27	-16.17
430.6	-288.7
137.63	-424.8
-86.67	-383
-196.84	-222.17
-223.08	-59.51
-232.24	10.99
-268.86	-33.57
-328.67	-146.79
-372.62	-252.99
-368.04	-296.02
-312.81	-264.28
-231.93	-184.94
-156.56	-99.79
-104.37	-40.59
-77.21	-16.17
-67.75	-15.87
-65.92	-21.67
-64.7	-22.28
-61.95	-16.78
-58.29	-9.77
-55.54	-5.19
-53.71	-3.97
-53.41	-4.88
-54.02	-6.41
-56.15	-8.24
-58.59	-10.68
-61.04	-13.43
-62.87	-15.56
-64.09	-15.26
-65.61	-11.6
-67.44	-4.27
-70.5	5.8
-73.55	16.48
-75.38	25.63
-75.38	30.21
-73.24	28.38
-69.89	19.84
-67.44	7.02
-67.44	-5.19
-69.27	-13.43
-71.41	-14.65
-72.02	-9.77
-71.11	-0.61
-68.97	8.54
-67.44	15.56
-66.83	20.14
-66.53	22.89
-65.92	25.02
-64.39	27.16
-62.87	28.38
-62.56	29.6
-63.48	31.13
-65	33.87
-66.83	38.76
-68.66	43.64
-70.8	48.22
-72.63	52.19
-74.16	57.07
-75.07	64.39
-75.99	75.07
-75.99	87.59
-74.46	100.71
-70.19	112.3
-63.48	122.38
-55.24	131.53
-46.39	140.99
-38.15	150.76
-31.13	158.08
-24.41	160.52
-17.4	157.17
-9.77	149.84
-1.83	141.91
6.1	134.89
11.9	126.95
14.65	115.36
14.65	100.1
13.12	84.84
11.9	72.02
11.6	62.87
12.51	54.63
13.43	43.64
13.73	29.91
12.82	14.34
10.68	0.31
7.63	-10.68
4.58	-18.31
2.44	-23.19
1.83	-26.86
2.44	-30.82
3.66	-35.4
4.88	-39.67
6.1	-42.72
7.63	-44.25
8.85	-45.17
9.77	-47.91
9.16	-54.32
7.63	-62.26
5.8	-68.66
5.8	-70.5
7.32	-67.75
10.07	-62.87
12.51	-58.29
13.12	-54.32
13.12	-49.74
13.12	-44.25
13.73	-38.15
14.04	-34.18
13.73	-35.1
11.9	-41.5
9.46	-50.66
7.02	-58.29
4.58	-60.12
3.66	-56.15
3.97	-49.74
4.58	-46.39
4.27	-49.74
1.22	-57.07
-3.36	-63.17
-7.63	-61.65
-9.77	-51.27
-9.16	-35.71
-6.71	-22.58
-4.88	-17.09
-4.27	-19.84
-3.97	-27.16
-2.75	-33.26
-0.61	-34.79
1.53	-30.82
3.05	-24.72
3.97	-19.23
4.58	-16.78
5.49	-16.78
5.49	-17.7
4.88	-18.01
3.66	-16.78
3.05	-14.65
4.27	-13.73
7.02	-16.17
9.16	-22.58
9.16	-31.13
6.71	-38.76
2.44	-42.72
-1.53	-42.11
-3.66	-38.15
-4.27	-32.96
-4.58	-28.69
-5.19	-26.25
-6.1	-25.33
-7.02	-24.41
-7.32	-22.58
-7.02	-20.75
-7.32	-19.84
-7.93	-21.06
-9.77	-24.11
-12.82	-27.77
-17.09	-30.21
-21.67	-30.82
-25.33	-30.21
-27.77	-28.99
-28.69	-27.77
-28.99	-25.94
-28.69	-23.19
-28.38	-18.31
-26.86	-11.29
-23.5	-2.75
-19.23	4.58
-14.34	8.24
-10.68	7.63
-8.85	3.36
-8.85	-1.22
-9.77	-3.05
-10.38	-1.22
-10.07	3.36
-8.85	8.24
-7.32	12.51
-5.8	15.56
-4.88	16.17
-4.88	12.21
-5.19	2.44
-5.49	-10.99
-6.41	-24.11
-7.32	-32.35
-8.54	-35.71
-10.38	-36.01
-11.9	-34.48
-12.82	-29.3
-13.12	-18.92
-13.43	-5.49
-15.56	5.8
-18.92	8.54
-21.97	1.83
-22.89	-8.85
-21.06	-17.4
-18.31	-20.75
-16.78	-19.84
-17.7	-17.7
-20.45	-16.17
-24.72	-15.56
-28.69	-15.87
-32.35	-17.09
-35.4	-20.14
-38.76	-24.72
-42.72	-28.38
-47.3	-28.08
-47.61	-17.7
-36.93	7.93
-5.8	51.57
52.19	113.22
138.85	193.18
254.21	292.36
396.73	407.41
562.13	517.27
730.59	576.48
851.44	525.51
860.90(R)	336
723.57	48.52
462.95	-235.6
164.49	-402.83
-70.8	-395.51
-192.87	-252.08
-225.83	-79.65
-236.21	17.7
-271.91	-4.88
-332.03	-117.49
-380.55	-244.45
-383.61	-314.33
-335.39	-297.24
-258.48	-214.84
-181.58	-116.58
-123.6	-46.39
-88.5	-19.84
-72.02	-22.58
-66.53	-29.3
-64.39	-25.33
-61.95	-11.6
-58.29	1.22
-55.24	7.02
-53.41	7.32
-52.8	7.93
-52.8	12.51
-53.1	20.14
-52.49	27.16
-51.88	29.6
-51.88	26.25
-52.8	19.84
-54.63	14.04
-57.37	11.6
-59.51	12.82
-60.42	17.7
-58.9	23.5
-55.54	26.86
-50.66	24.41
-46.08	16.48
-43.64	9.77
-42.11	13.12
-41.5	31.13
-39.98	57.68
-37.54	78.13
-34.48	81.48
-31.43	68.05
-28.99	50.05
-26.86	40.28
-25.94	42.72
-26.55	52.49
-28.69	62.87
-31.13	71.72
-32.35	81.48
-31.43	93.38
-30.21	104.37
-29.3	108.03
-30.21	101.32
-33.26	88.2
-36.93	77.51
-40.28	78.43
-42.11	92.16
-42.72	110.78
-42.42	123.29
-42.72	123.29
-43.33	115.66
-42.42	113.53
-38.15	126.95
-28.99	152.59
-15.56	176.09
-0.92	182.5
11.9	168.15
21.06	143.43
26.86	122.99
30.21	114.14
32.96	114.14
36.93	114.75
41.2	112.3
45.17	108.34
48.22	105.59
50.96	100.71
53.1	86.36
55.85	60.42
57.98	28.08
58.59	1.53
57.07	-9.77
54.93	-5.49
52.49	6.1
49.74	13.43
46.39	9.46
42.42	-2.75
38.76	-15.26
36.93	-20.14
37.84	-16.17
39.67	-9.16
40.28	-5.8
38.76	-8.85
35.71	-15.87
32.35	-22.58
29.6	-27.16
28.38	-30.21
27.77	-32.65
27.77	-32.96
27.77	-29.3
27.77	-21.97
27.77	-13.73
26.86	-6.41
25.94	-0.92
25.33	3.36
26.25	7.63
28.99	11.6
32.65	13.12
35.1	12.21
34.79	10.38
32.35	10.07
28.99	12.82
26.86	15.26
27.16	13.12
29.6	4.58
32.35	-7.63
34.48	-16.78
35.1	-17.7
35.1	-10.68
36.01	0
37.84	9.16
41.2	14.65
43.95	16.78
45.17	16.48
45.17	15.56
44.56	14.04
44.56	13.73
45.47	16.78
46.69	24.11
47.61	33.87
48.52	42.72
49.13	47
49.13	45.78
48.83	40.89
47.91	35.71
46.69	32.96
45.17	34.18
44.25	36.93
43.33	39.98
42.72	41.81
42.11	43.64
41.5	47.3
40.89	52.49
39.67	57.07
37.54	58.59
35.4	56.76
33.57	53.41
32.65	51.27
33.87	53.71
36.32	60.42
39.37	68.97
41.5	77.21
41.81	82.4
39.37	83.01
35.71	78.43
32.04	69.27
30.21	58.59
30.21	49.44
30.82	43.64
30.52	41.81
28.99	41.2
26.55	39.67
25.33	37.54
25.94	37.23
28.69	41.2
32.35	49.13
35.71	56.76
37.84	59.51
39.06	56.46
40.59	50.35
41.81	45.47
42.72	44.86
43.33	47.3
43.03	49.74
41.81	50.35
38.45	48.83
33.57	47.3
30.52	49.74
36.01	61.95
58.59	89.11
104.98	135.19
177	201.72
273.74	289.92
394.59	398.86
539.86	516.66
700.68	609.44
845.03	618.29
913.39(R)	490.11
852.36	230.71
653.69	-78.13
373.84	-313.11
110.47	-378.72
-58.59	-272.22
-124.51	-85.14
-140.08	63.48
-165.71	100.4
-222.17	28.38
-284.73	-92.77
-313.72	-190.43
-289.61	-219.12
-223.39	-176.7
-144.65	-93.38
-78.13	-9.77
-35.1	45.47
-13.73	66.22
-5.8	66.83
-2.14	66.22
2.75	72.33
9.46	82.09
15.87	88.2
20.14	87.89
21.97	83.92
22.58	80.57
22.58	81.18
23.5	83.92
24.72	86.98
26.55	87.89
27.77	87.59
28.38	86.36
28.38	86.06
28.38	86.67
28.69	87.59
29.3	87.59
29.91	86.36
29.6	83.62
28.69	80.26
28.08	78.43
27.77	78.43
28.08	80.26
28.08	83.01
27.16	84.84
25.33	85.45
22.28	85.14
18.31	86.36
13.43	90.94
8.54	100.1
5.49	112
4.27	123.6
4.58	132.14
3.97	137.02
1.53	139.47
-3.05	141.3
-7.32	143.43
-10.38	146.18
-12.21	148.93
-13.73	151.67
-16.48	155.33
-20.45	161.13
-25.02	169.37
-28.08	179.75
-28.69	190.43
-25.94	200.5
-20.14	208.74
-11.6	215.15
-1.83	219.42
8.85	222.47
19.84	223.69
30.52	223.69
40.59	222.47
49.44	219.12
57.37	213.01
64.09	203.86
69.58	191.65
73.85	177.92
76.29	163.27
76.9	148.01
75.68	132.45
72.94	115.97
69.89	99.49
67.14	83.62
64.7	68.36
61.34	54.02
56.76	39.98
51.27	27.16
45.47	15.56
39.98	5.8
35.1	-1.22
29.6	-4.58
23.5	-4.58
17.4	-1.53
13.43	2.14
12.51	4.58
13.73	3.66
15.26	-0.92
15.26	-8.85
12.51	-17.4
8.24	-24.72
4.27	-28.69
2.14	-28.69
2.44	-26.25
3.66	-22.89
4.27	-21.36
4.27	-20.75
4.58	-20.45
5.8	-18.62
8.85	-15.56
12.82	-12.51
16.17	-11.6
19.23	-12.51
21.36	-14.34
23.5	-15.56
25.63	-15.56
26.86	-15.26
27.16	-15.26
26.55	-15.87
25.63	-16.78
25.02	-18.01
25.33	-18.31
26.25	-18.01
27.16	-17.7
27.47	-18.92
27.16	-22.28
27.47	-26.55
28.38	-31.13
28.99	-33.87
28.38	-34.79
25.94	-34.79
22.28	-35.1
17.7	-36.01
13.73	-37.54
10.99	-37.84
9.16	-35.71
8.24	-31.13
7.63	-25.33
6.41	-20.45
4.58	-18.31
2.44	-19.53
0.92	-23.19
0	-27.77
0	-32.96
-0.31	-37.23
-1.53	-40.28
-3.66	-41.2
-6.1	-40.28
-8.24	-38.45
-10.38	-36.32
-11.6	-33.57
-12.51	-29.6
-12.21	-24.41
-10.99	-20.45
-9.46	-20.14
-7.93	-24.11
-6.71	-29.6
-6.1	-33.26
-5.8	-33.57
-5.49	-30.82
-4.58	-28.08
-3.97	-28.08
-3.36	-30.82
-3.66	-33.87
-3.97	-35.71
-3.66	-34.79
-2.44	-32.35
-0.92	-30.82
0.31	-31.74
0.31	-35.1
-0.61	-39.67
-2.44	-43.64
-4.27	-45.78
-6.1	-45.78
-7.63	-45.17
-9.16	-44.86
-10.99	-44.56
-13.43	-42.42
-16.17	-38.45
-18.31	-33.57
-19.23	-28.99
-18.31	-25.63
-16.48	-23.19
-14.95	-20.45
-14.34	-18.01
-14.65	-16.78
-15.26	-18.01
-16.17	-20.75
-18.62	-21.97
-23.8	-19.23
-29.91	-10.68
-30.82	5.19
-17.7	30.82
17.4	69.58
79.65	125.43
169.98	201.11
287.48	298.16
432.13	410.77
598.14	514.53
764.16	560.61
878.3	490.42
878.60(R)	281.98
732.42	-14.34
468.44	-289.61
175.78	-431.52
-47	-396.42
-154.72	-240.78
-177.61	-79.65
-184.02	-7.63
-219.42	-50.35
-278.63	-163.27
-324.4	-271.61
-322.57	-317.99
-269.78	-289
-190.73	-210.57
-114.75	-124.21
-60.12	-62.56
-30.82	-36.32
-20.45	-36.01
-19.84	-44.25
-20.75	-47.61
-20.14	-43.33
-17.09	-33.26
-13.12	-21.67
-9.77	-13.12
-8.24	-9.77
-8.85	-12.21
-10.68	-16.78
-12.82	-20.14
-13.73	-21.36
-13.43	-22.28
-12.21	-23.8
-11.6	-25.94
-11.29	-27.16
-11.29	-26.55
-11.9	-24.41
-11.9	-20.75
-11.29	-15.56
-9.16	-9.16
-6.1	-2.75
-2.44	1.53
0.61	2.14
2.14	0
2.44	-2.75
2.14	-3.36
1.53	-0.61
1.53	4.58
1.83	9.46
1.22	11.6
-0.31	10.99
-2.75	10.07
-5.19	10.68
-6.41	13.12
-7.02	16.17
-7.63	17.09
-9.16	16.48
-12.21	18.01
-16.17	25.02
-20.14	38.15
-23.19	54.02
-25.94	67.75
-28.08	76.29
-29.91	79.96
-32.04	80.57
-34.18	80.87
-35.71	84.53
-35.71	93.38
-32.65	107.42
-26.55	123.9
-18.01	137.94
-9.16	145.26
-1.53	145.57
5.19	140.38
12.21	133.36
19.84	126.65
28.69	119.93
37.54	112.61
43.95	103.15
47.91	91.55
49.13	79.04
48.83	66.83
47.91	56.15
46.39	46.39
44.25	37.54
42.11	28.38
40.89	19.23
40.59	9.46
40.59	-1.22
40.28	-12.51
38.76	-23.5
36.01	-33.26
33.87	-39.67
32.35	-42.72
31.74	-43.33
31.43	-43.64
30.52	-44.25
29.91	-45.47
29.6	-47.3
29.91	-48.52
30.21	-50.35
30.21	-52.49
29.3	-56.15
27.77	-60.42
25.63	-64.39
23.5	-67.44
21.36	-69.27
19.84	-69.27
18.62	-67.75
17.09	-65
15.26	-61.65
13.73	-59.81
13.12	-59.2
14.04	-59.51
15.87	-59.51
17.4	-59.51
17.4	-60.42
16.17	-63.78
14.34	-68.97
13.43	-74.46
13.43	-77.21
14.04	-77.21
14.34	-75.07
13.43	-72.94
11.6	-70.8
10.38	-68.05
10.38	-64.39
12.21	-59.81
16.17	-56.46
20.45	-56.76
23.19	-60.42
22.58	-65.61
19.84	-69.27
16.48	-69.89
14.95	-67.44
15.26	-65
16.78	-64.39
17.4	-65.61
16.48	-67.14
14.04	-68.05
10.99	-67.75
7.93	-67.75
4.58	-68.97
1.22	-70.5
-2.14	-71.41
-4.58	-70.8
-6.41	-68.97
-7.63	-66.83
-8.54	-64.39
-9.16	-61.34
-9.46	-57.37
-9.16	-51.88
-8.24	-46.08
-7.63	-40.59
-7.63	-36.01
-8.54	-32.04
-9.46	-29.3
-9.77	-27.16
-9.77	-25.33
-9.16	-23.8
-8.85	-23.5
-9.77	-24.72
-12.82	-25.94
-18.92	-23.8
-26.55	-15.56
-30.52	0.31
-22.28	23.5
5.8	54.63
58.9	94.91
137.94	148.32
243.84	220.95
377.2	313.11
535.89	410.77
706.48	473.94
846.86	444.64
892.64(R)	285.95
795.9	26.25
562.13	-242.92
262.15	-409.24
0	-409.55
-153.81	-275.27
-204.16	-108.64
-212.71	-11.9
-238.04	-27.77
-293.27	-129.09
-348.51	-246.89
-364.07	-317.08
-325.62	-312.19
-250.85	-246.89
-170.59	-158.69
-108.03	-83.92
-70.19	-41.5
-52.8	-29.3
-47.61	-33.57
-46.69	-40.59
-46.69	-43.64
-46.69	-41.5
-46.08	-34.79
-44.25	-26.86
-40.89	-19.84
-37.84	-15.26
-36.01	-13.43
-36.32	-14.04
-37.84	-17.7
-38.76	-23.8
-39.06	-30.82
-38.45	-35.1
-38.15	-34.18
-38.15	-28.08
-39.06	-20.45
-39.98	-14.95
-40.89	-12.51
-40.28	-11.9
-38.45	-9.16
-35.71	-0.92
-33.87	11.29
-33.26	21.97
-34.18	24.41
-35.4	16.48
-34.79	3.05
-32.96	-7.02
-30.52	-8.54
-29.6	-2.44
-30.21	5.19
-32.96	9.46
-36.62	10.07
-39.67	11.29
-41.81	16.78
-43.03	26.55
-43.33	35.71
-43.33	38.76
-43.64	33.26
-44.86	23.8
-45.78	19.53
-47	28.69
-47.91	49.74
-49.13	74.16
-49.74	91.55
-48.83	96.74
-45.17	93.38
-38.76	89.42
-29.91	89.11
-19.84	91.25
-10.07	96.13
-0.61	108.03
8.54	131.23
17.4	162.96
26.25	189.51
34.18	191.96
39.98	160.52
43.03	106.2
43.95	52.8
43.03	20.14
40.28	13.12
35.71	19.23
28.99	21.97
22.58	13.43
18.62	-1.22
18.92	-10.99
22.58	-10.38
25.33	-3.66
24.41	0.31
18.31	-5.19
10.38	-19.23
4.27	-34.48
2.75	-45.78
5.19	-52.8
9.16	-59.2
11.29	-66.53
10.07	-74.46
6.1	-79.04
2.14	-79.65
0	-78.13
0.61	-79.04
3.05	-86.67
4.88	-98.88
3.97	-110.47
0.92	-115.36
-1.22	-108.34
0	-92.47
3.66	-75.38
7.93	-67.44
9.77	-73.24
8.85	-89.11
7.02	-103.15
6.41	-106.2
6.71	-96.13
6.41	-81.79
3.66	-72.33
-0.61	-71.72
-3.97	-76.29
-4.58	-81.18
-3.05	-83.92
-1.83	-86.06
-2.75	-87.89
-5.19	-86.36
-7.02	-77.51
-5.49	-62.87
-1.53	-49.44
2.75	-44.56
5.49	-48.83
6.1	-55.24
5.8	-54.02
6.1	-43.95
7.63	-32.65
9.16	-31.74
9.46	-45.78
7.93	-67.75
5.19	-85.45
2.44	-90.94
0.61	-83.31
-0.61	-69.58
-1.83	-57.37
-3.97	-52.19
-6.41	-54.93
-7.63	-64.7
-10.68	-16.17
-10.38	-13.73
-10.38	-12.82
-10.68	-13.73
-11.29	-13.73
-11.6	-11.29
-11.6	-6.1
-10.99	-0.31
-10.68	3.66
-10.99	3.97
-11.29	0.92
-11.9	-3.05
-12.82	-6.1
-14.34	-8.24
-16.78	-9.16
-20.14	-10.38
-22.89	-11.9
-24.72	-13.12
-25.63	-14.04
-25.94	-13.12
-26.86	-10.38
-29.3	-6.1
-32.65	-0.92
-36.32	4.88
-38.45	11.6
-37.54	19.53
-33.87	27.47
-28.08	33.26
-22.28	34.18
-18.31	31.13
-17.09	26.55
-18.31	23.5
-20.45	23.19
-22.28	24.72
-22.89	25.02
-22.89	22.58
-23.19	17.4
-23.8	11.29
-25.63	6.1
-27.77	2.44
-29.91	0.61
-31.43	0
-32.65	0.31
-33.57	0.61
-34.18	0.61
-33.87	0.92
-32.65	2.14
-30.82	4.27
-28.38	6.71
-26.25	8.24
-25.63	7.93
-26.25	6.41
-27.77	4.27
-29.6	2.14
-31.13	-0.92
-32.35	-5.8
-33.26	-11.6
-34.18	-15.56
-35.4	-15.26
-37.23	-10.38
-39.67	-3.05
-41.5	3.36
-41.5	7.32
-39.67	10.38
-36.01	15.87
-31.74	25.02
-27.16	35.4
-22.89	43.95
-19.23	48.22
-16.48	50.05
-15.26	51.88
-15.56	54.93
-16.78	57.98
-18.01	58.59
-18.92	54.32
-19.23	45.47
-18.31	34.18
-17.4	22.58
-16.78	13.73
-16.78	9.77
-16.78	11.29
-15.87	17.7
-14.34	25.63
-12.21	30.52
-10.68	29.3
-10.68	21.36
-12.21	9.16
-14.34	-2.14
-16.48	-7.32
-18.31	-3.97
-19.23	7.02
-19.23	20.45
-19.23	29.6
-19.53	29.3
-21.06	19.53
-24.11	4.88
-28.69	-7.93
-32.35	-12.82
-34.18	-8.85
-33.87	1.22
-32.04	12.51
-31.43	20.75
-33.26	24.41
-37.23	24.41
-40.89	22.89
-42.42	22.89
-40.89	26.55
-36.62	33.87
-32.96	42.42
-31.43	48.22
-32.96	47.91
-35.71	41.2
-37.23	31.74
-36.93	23.8
-35.71	20.75
-37.84	24.41
-44.56	33.87
-54.32	45.78
-59.81	57.98
-51.88	71.72
-22.58	92.16
32.04	128.48
112.92	188.6
220.64	274.96
356.45	380.55
519.41	485.53
697.94	557.25
854.49	553.28
924.68(R)	434.57
853.27	201.72
633.24	-86.06
324.71	-331.73
33.57	-448.3
-155.33	-413.82
-228.58	-289.61
-240.78	-175.48
-258.79	-138.85
-310.06	-180.97
-372.31	-252.38
-402.22	-293.88
-373.84	-278.32
-298.77	-215.76
-210.88	-133.97
-141.3	-59.51
-103.45	-9.46
-92.16	13.43
-93.69	15.56
-96.13	8.85
-94.91	4.88
-90.03	9.77
-84.84	22.58
-79.96	37.23
-75.99	48.52
-72.94	53.71
-70.8	53.41
-68.66	51.57
-66.22	50.66
-63.78	51.27
-62.26	50.96
-62.56	49.13
-64.7	45.47
-66.83	41.81
-68.05	39.37
-68.05	37.84
-66.53	36.32
-64.39	35.4
-61.34	36.01
-58.59	39.67
-56.76	46.39
-56.15	54.02
-56.15	59.51
-56.15	60.73
-55.54	58.59
-55.24	55.85
-55.85	55.54
-56.76	57.07
-56.76	57.07
-55.85	54.02
-54.63	50.35
-54.32	52.49
-55.54	65.61
-57.98	89.42
-60.42	116.27
-62.26	133.97
-63.48	133.06
-64.7	113.83
-67.44	86.98
-70.5	67.14
-72.63	62.56
-73.55	70.5
-73.24	80.87
-72.33	87.28
-71.11	92.16
-68.05	104.98
-61.95	130.92
-51.57	165.41
-39.06	193.79
-26.55	204.77
-15.56	194.4
-7.93	169.68
-2.14	141.3
3.66	119.32
10.38	108.64
17.09	108.34
21.36	113.53
21.97	116.58
20.14	109.56
18.31	89.42
17.4	61.95
16.17	38.15
12.82	28.38
8.24	33.87
3.97	46.08
2.44	50.35
1.83	36.93
0	8.85
-4.58	-19.53
-10.68	-31.43
-15.26	-21.97
-16.78	-1.22
-15.87	14.34
-14.65	17.09
-14.65	17.7
-13.73	37.84
-7.63	93.99
8.54	185.24
39.37	296.63
86.98	407.71
147.71	490.11
210.57	503.23
263.37	402.22
298.46	161.13
317.08	-200.81
326.23	-612.18
333.25	-980.84
333.25	-1236.88
312.5	-1358.95
256.96	-1365.66
166.93	-1293.03
59.2	-1178.59
-39.06	-1054.69
-104.37	-945.43
-131.84	-859.99
-137.33	-788.88
-142.82	-705.57
-160.22	-590.52
-184.63	-449.52
-200.5	-314.33
-195.92	-221.25
-172.73	-189.21
-145.87	-205.99
-128.78	-239.26
-124.82	-257.87
-125.12	-251.77
-120.54	-234.68
-106.81	-227.97
-86.67	-241.09
-66.22	-266.72
-49.44	-288.09
-36.32	-296.94
-27.77	-296.63
-26.55	-296.63
-36.32	-296.02
-55.85	-280.15
-76.9	-229.49
-89.42	-137.33
-86.06	-18.62
-69.58	96.13
-50.05	177.31
-37.23	213.32
-34.79	216.98
-39.06	214.23
-44.86	226.14
-47.3	256.04
-47	291.75
-45.78	318.3
-45.47	330.51
-46.08	332.95
-47.3	334.47
-47.61	341.19
-45.78	353.09
-41.81	370.48
-36.62	392.76
-33.26	416.87
-33.57	436.1
-36.93	446.47
-40.89	450.44
-43.03	456.54
-41.81	474.24
-38.76	504.15
-34.79	538.33
-30.82	567.93
-27.77	589.29
-25.94	606.69
-25.63	625.31
-26.25	646.36
-25.63	667.11
-22.58	685.73
-17.09	701.9
-10.38	715.64
-4.88	724.18
-2.14	724.49
-1.53	715.03
-0.92	700.07
1.22	686.04
5.19	674.13
10.68	660.4
14.95	637.82
16.48	603.33
15.26	560.91
12.21	516.66
9.16	475.16
6.71	437.93
5.19	404.66
3.97	376.59
2.14	354.61
0.31	337.52
-0.61	321.66
-0.31	302.43
0.61	278.63
1.22	252.69
1.22	229.19
0.92	210.88
0.92	197.14
0.92	183.41
0.31	164.49
-0.92	137.94
-1.22	106.51
0.31	75.99
3.36	53.1
6.71	40.89
8.54	36.93
7.93	34.79
5.8	28.99
3.36	16.48
1.22	0.31
0	-14.34
-0.31	-22.58
-0.61	-24.72
-1.22	-22.89
-2.14	-20.45
-3.05	-18.92
-2.44	-18.01
-0.61	-17.09
2.14	-16.17
4.88	-16.48
6.41	-16.48
5.8	-16.17
3.97	-15.87
2.14	-16.78
0.31	-19.84
-0.92	-23.8
-1.22	-25.33
-0.92	-22.28
-0.31	-15.26
0	-7.63
-0.31	-2.44
-0.92	0.31
-1.22	1.83
0.61	4.58
4.58	7.63
9.16	8.85
12.82	5.49
13.43	-2.75
10.99	-14.65
7.02	-26.55
2.75	-35.1
0	-39.98
-1.22	-41.81
-1.22	-43.03
-0.61	-44.86
-0.61	-47.3
-0.61	-49.44
-0.31	-49.13
0.31	-46.08
1.53	-40.89
3.05	-36.32
3.66	-33.87
3.66	-32.96
3.66	-31.74
3.66	-28.69
4.58	-24.11
6.41	-20.75
8.85	-20.45
11.6	-22.58
13.73	-25.63
15.87	-27.77
17.09	-29.6
17.4	-32.04
17.4	-36.01
16.78	-39.98
15.87	-42.11
14.95	-40.59
14.95	-36.32
15.26	-30.82
15.56	-27.47
15.56	-26.55
15.56	-27.47
16.48	-26.86
19.53	-22.89
24.72	-15.26
30.21	-6.1
34.79	2.14
37.84	7.63
38.76	10.38
38.45	10.99
37.54	9.16
36.01	4.88
34.18	-1.83
32.04	-8.85
30.21	-14.34
28.38	-16.48
27.16	-15.56
25.94	-12.82
24.41	-10.38
22.58	-9.46
19.84	-10.07
17.4	-10.99
14.95	-10.99
13.43	-8.85
12.51	-5.19
11.9	-0.61
11.6	3.05
11.29	5.19
10.68	4.58
10.07	1.83
9.46	-2.44
8.24	-6.71
6.71	-10.38
5.19	-13.12
3.97	-16.48
3.36	-21.67
3.36	-28.08
3.05	-33.57
2.44	-36.62
1.22	-36.93
0	-35.1
-1.22	-32.04
-1.83	-27.16
-1.22	-19.23
0.31	-9.16
2.14	0.61
3.66	4.58
3.66	1.22
2.75	-7.93
1.83	-17.4
1.22	-21.97
1.53	-20.75
3.05	-15.87
4.88	-11.29
6.41	-9.77
6.71	-10.99
4.88	-12.82
1.53	-14.04
-2.44	-14.04
-5.49	-14.34
-7.32	-14.65
-7.63	-15.26
-7.63	-15.87
-7.32	-16.17
-7.02	-15.87
-7.02	-14.65
-7.02	-12.51
-7.32	-9.46
-7.93	-5.49
-8.85	-2.14
-10.38	-0.31
-11.9	-0.92
-13.43	-3.05
-15.26	-5.8
-17.09	-7.63
-18.31	-9.77
-19.23	-13.73
-18.92	-19.23
-18.01	-24.11
-16.78	-25.02
-16.48	-20.14
-18.01	-9.46
-23.19	3.97
-31.74	17.09
-40.89	30.21
-43.33	47.61
-31.13	74.16
3.05	115.05
61.65	171.81
144.04	245.67
249.94	339.66
380.25	455.02
534.97	579.83
702.51	679.63
845.64	697.94
905.46(R)	579.83
832.52	324.4
624.08	4.88
338.44	-260.62
71.11	-372.62
-102.84	-317.08
-174.87	-177.31
-191.96	-70.8
-210.88	-66.83
-253.91	-150.45
-300.29	-249.02
-315.25	-291.14
-281.07	-254.52
-210.88	-166.32
-135.5	-72.63
-80.26	-7.32
-53.71	21.06
-48.52	23.19
-51.57	17.4
-52.19	15.87
-47.61	21.36
-41.2	29.6
-37.84	33.57
-38.45	30.82
-41.81	24.11
-45.17	18.31
-46.08	17.4
-45.17	21.67
-43.03	28.69
-41.5	33.87
-41.2	35.1
-41.81	32.35
-42.42	28.99
-41.5	27.77
-39.37	29.6
-36.93	32.35
-35.1	33.26
-34.79	29.91
-36.01	23.5
-37.54	15.87
-38.76	10.07
-39.37	7.63
-39.98	7.93
-40.59	10.68
-41.2	14.04
-41.2	17.4
-40.59	19.53
-39.37	20.45
-38.15	19.84
-37.84	18.92
-37.84	18.31
-37.84	19.84
-38.15	22.89
-38.76	27.47
-39.98	31.74
-42.11	33.87
-45.17	33.26
-48.83	29.91
-52.49	26.25
-56.15	24.11
-59.51	24.72
-62.56	27.77
-65.31	32.04
-67.75	35.1
-70.8	35.71
-74.77	34.79
-78.74	35.4
-81.48	40.28
-80.57	49.74
-75.99	61.34
-69.27	71.72
-61.65	79.04
-53.71	85.45
-44.86	92.47
-34.18	100.4
-21.67	106.51
-9.77	108.03
0.31	104.06
7.32	95.52
12.21	84.84
15.87	74.77
18.92	65.92
21.97	58.9
24.41	52.49
25.33	46.08
24.72	39.37
23.5	32.04
21.67	25.33
20.75	19.84
20.75	15.26
21.36	10.68
21.97	5.8
22.58	1.53
22.89	-0.92
22.58	-0.92
22.28	1.22
21.97	3.97
21.36	6.1
20.14	7.32
18.92	8.54
17.7	10.68
17.09	14.04
16.78	17.7
17.09	21.06
16.78	24.41
15.87	27.47
14.04	29.3
11.6	28.69
8.54	25.02
5.8	18.62
3.66	11.6
2.44	6.71
2.14	5.49
1.83	7.32
1.83	10.07
1.83	11.29
2.44	10.07
3.05	6.1
3.97	0.61
3.66	-3.97
2.14	-6.41
0	-5.49
-1.53	-1.53
-1.83	3.97
-1.53	7.32
-0.61	4.88
-0.31	-5.49
-0.31	-22.28
-0.92	-40.89
-1.53	-54.32
-2.14	-58.59
-3.97	-53.41
-6.1	-43.33
-7.93	-33.87
-8.24	-29.91
-7.02	-32.04
-5.49	-37.54
-5.19	-42.11
-6.41	-42.11
-7.93	-36.93
-8.24	-29.6
-7.32	-24.41
-7.02	-23.8
-8.54	-27.47
-11.9	-32.96
-14.95	-38.76
-16.48	-45.78
-15.87	-54.93
-14.95	-65.31
-15.56	-74.46
-18.01	-78.13
-21.36	-73.55
-24.11	-60.73
-25.33	-41.2
-26.25	-17.4
-28.69	6.41
-31.74	26.86
-30.52	43.64
-16.17	61.95
18.62	91.25
78.74	138.85
163.88	205.99
274.96	288.7
413.82	378.11
579.83	456.24
757.14	495
899.05	454.1
938.11(R)	303.04
826.42	57.37
573.12	-210.88
254.52	-403.14
-22.28	-451.05
-185.85	-365.3
-241.09	-231.32
-249.02	-148.62
-269.17	-162.35
-316.77	-245.06
-363.16	-326.23
-369.57	-346.07
-321.66	-292.36
-238.95	-197.45
-155.03	-107.73
-96.13	-53.71
-67.75	-37.54
-60.73	-41.81
-60.42	-45.47
-58.59	-38.15
-53.71	-24.41
-49.13	-14.95
-48.22	-17.09
-49.74	-30.21
-51.57	-47
-52.19	-58.29
-51.57	-59.51
-51.27	-50.05
-52.19	-35.71
-54.63	-23.8
-57.98	-21.06
-60.73	-26.55
-61.34	-33.57
-58.59	-33.87
-53.1	-24.11
-47.61	-8.85
-44.56	2.75
-44.56	2.44
-46.69	-10.99
-49.13	-31.74
-50.96	-50.05
-52.8	-55.85
-54.63	-42.11
-55.54	-8.85
-54.93	32.65
-52.19	65
-49.44	71.72
-47.61	49.44
-48.22	12.51
-49.74	-18.92
-51.27	-30.52
-53.1	-19.84
-54.32	4.88
-54.32	31.74
-53.1	50.05
-51.27	54.63
-50.05	48.83
-50.96	44.56
-52.8	56.15
-53.1	87.28
-50.96	126.65
-46.69	153.81
-41.81	154.72
-36.62	131.23
-30.52	100.4
-21.67	79.65
-10.99	75.07
0.61	83.01
11.29	93.38
21.36	101.01
31.13	105.9
41.2	107.42
49.74	99.79
54.93	75.07
56.46	34.79
55.54	-3.97
54.93	-19.23
55.54	-3.05
55.54	28.08
53.71	44.56
48.52	26.55
40.28	-20.45
29.6	-72.02
18.31	-104.06
8.24	-108.95
1.53	-96.74
-1.22	-81.48
-0.92	-75.07
0.31	-81.48
0.31	-96.44
-1.83	-112.92
-5.8	-122.07
-10.38	-120.24
-13.73	-110.47
-15.87	-100.4
-16.48	-95.83
-15.26	-98.88
-13.12	-108.34
-11.6	-121.15
-12.51	-133.06
-15.87	-139.77
-20.75	-139.16
-25.33	-132.14
-28.08	-125.12
-29.6	-126.34
-30.21	-138.85
-30.21	-155.03
-28.99	-165.1
-27.16	-162.66
-25.63	-150.76
-25.33	-137.63
-25.02	-132.75
-21.97	-137.63
-14.65	-146.48
-6.1	-151.98
0.31	-151.98
1.22	-148.93
-2.14	-147.09
-6.1	-147.71
-7.63	-148.32
-6.1	-144.96
-4.27	-138.85
-3.36	-135.8
-4.58	-139.47
-6.41	-147.71
-7.32	-152.59
-6.71	-146.79
-5.49	-130.31
-4.88	-111.39
-6.1	-99.18
-9.46	-97.66
-14.04	-101.93
-18.01	-105.29
-20.45	-103.45
-21.36	-98.88
-21.06	-97.05
-20.14	-101.01
-18.92	-107.73
-18.31	-110.78
-18.62	-106.81
-20.45	-97.05
-23.5	-87.28
-26.55	-83.01
-29.6	-85.45
-32.35	-93.69
-35.4	-106.2
-38.15	-120.85
-39.98	-133.06
-39.37	-136.72
-35.4	-130
-28.99	-117.49
-22.28	-109.86
-17.7	-115.05
-16.17	-130.92
-17.7	-144.96
-20.45	-145.26
-22.58	-130.31
-22.89	-109.86
-21.67	-97.35
-20.14	-99.79
-19.84	-114.14
-20.75	-131.23
-22.28	-143.74
-23.5	-149.23
-23.8	-149.23
-23.5	-145.87
-23.19	-140.08
-22.89	-134.28
-22.28	-131.53
-21.36	-132.45
-19.53	-134.89
-17.4	-133.06
-15.87	-122.38
-14.95	-104.98
-14.95	-87.28
-15.26	-76.6
-15.87	-75.07
-17.4	-79.65
-20.75	-84.23
-25.02	-84.23
-28.69	-79.04
-31.13	-72.02
-32.96	-68.05
-34.18	-70.19
-34.79	-77.51
-34.48	-84.84
-32.65	-86.98
-30.52	-82.09
-30.52	-74.16
-34.18	-68.97
-40.59	-70.19
-46.08	-76.6
-47.91	-82.7
-44.25	-83.31
-36.93	-77.82
-28.99	-69.58
-22.58	-63.17
-18.92	-61.65
-17.4	-64.39
-17.09	-68.97
-16.78	-72.94
-16.48	-75.38
-16.48	-75.99
-17.4	-75.99
-21.06	-74.77
-26.25	-71.41
-28.08	-63.48
-19.53	-45.78
7.32	-14.04
56.46	35.1
128.48	102.84
224.3	191.04
345.76	300.29
493.47	419.92
657.35	519.71
802.92	547.49
871.89(R)	448.3
814.21	212.4
622.25	-96.74
349.43	-364.38
88.2	-484.01
-85.75	-426.33
-158.39	-260.31
-175.17	-104.68
-194.7	-46.39
-241.09	-95.52
-296.02	-197.14
-322.88	-278.32
-299.99	-294.19
-236.82	-245.67
-161.74	-164.18
-101.32	-86.06
-66.83	-36.32
-53.71	-19.23
-50.66	-23.19
-47	-31.43
-38.76	-32.65
-28.69	-26.86
-20.14	-20.45
-13.73	-18.62
-8.54	-22.28
-3.05	-26.55
2.14	-28.38
6.1	-26.86
7.93	-24.11
8.24	-22.58
7.63	-22.28
7.32	-21.97
7.93	-20.14
8.54	-17.7
7.93	-16.78
4.88	-19.53
0.92	-24.41
-2.75	-28.38
-3.36	-27.77
-0.92	-22.58
3.05	-15.56
6.71	-9.77
8.24	-7.02
8.24	-7.02
7.32	-7.63
5.19	-7.63
1.53	-6.71
-3.36	-3.36
-8.24	2.14
-10.38	10.07
-9.46	18.62
-7.63	24.41
-8.24	27.47
-13.73	28.99
-22.28	32.04
-30.21	37.84
-34.48	45.17
-34.48	50.96
-32.96	52.49
-33.26	50.05
-37.23	45.78
-43.03	42.42
-47.91	42.42
-49.13	46.08
-46.69	52.8
-41.81	62.26
-36.01	74.16
-29.3	87.89
-21.67	102.23
-13.12	113.53
-3.97	118.1
4.58	115.05
12.51	105.9
19.53	94.91
25.33	85.14
28.69	76.9
29.91	68.36
30.82	58.29
33.26	47.3
37.54	36.93
41.81	28.08
44.25	19.53
42.72	9.77
38.76	-3.05
32.65	-18.62
25.94	-35.71
19.53	-50.66
14.04	-60.73
9.77	-65.92
5.49	-68.97
-0.31	-73.55
-8.85	-81.18
-17.7	-88.81
-23.8	-91.25
-25.33	-86.06
-23.8	-76.6
-21.36	-67.75
-18.62	-64.39
-16.17	-66.53
-13.73	-72.94
-13.12	-81.18
-15.87	-90.03
-21.06	-97.66
-25.63	-101.93
-26.25	-101.32
-22.89	-96.13
-17.7	-89.42
-14.65	-84.23
-14.65	-82.09
-16.17	-82.09
-16.17	-81.79
-13.43	-80.26
-7.93	-78.74
-2.75	-78.13
-0.61	-79.96
-1.53	-83.92
-4.88	-88.5
-7.93	-92.77
-9.77	-95.83
-10.99	-97.66
-11.6	-97.66
-12.21	-96.44
-13.12	-94.3
-13.43	-91.86
-14.65	-89.11
-16.78	-86.36
-18.62	-82.09
-18.92	-75.99
-17.09	-67.75
-15.56	-58.9
-18.62	-54.02
-27.77	-55.54
-41.81	-62.56
-54.63	-68.66
-61.34	-67.44
-60.12	-57.37
-55.24	-44.25
-52.49	-37.84
-55.24	-41.81
-62.56	-52.49
-70.5	-61.04
-75.68	-62.26
-78.13	-58.29
-80.57	-56.15
-84.84	-59.81
-90.94	-67.14
-95.21	-71.72
-95.52	-71.72
-90.64	-71.11
-82.7	-75.38
-76.6	-87.28
-74.77	-102.23
-77.21	-111.69
-81.18	-111.39
-84.23	-104.98
-84.23	-99.79
-82.09	-101.01
-79.96	-109.25
-79.04	-119.93
-78.74	-127.26
-78.74	-130.92
-81.18	-134.89
-88.5	-142.82
-100.4	-154.42
-113.22	-164.79
-120.24	-166.93
-117.8	-159.3
-108.03	-147.4
-97.05	-139.77
-90.64	-140.99
-90.33	-149.23
-95.83	-158.08
-102.84	-160.83
-108.34	-155.03
-110.17	-142.52
-108.64	-128.48
-105.9	-117.19
-105.59	-113.22
-109.86	-119.93
-117.8	-138.24
-127.26	-164.18
-134.89	-187.99
-137.02	-198.36
-133.06	-190.43
-124.51	-169.37
-117.19	-148.32
-116.88	-140.69
-123.29	-150.45
-130.31	-168.76
-131.23	-182.19
-124.21	-181.27
-114.44	-168.76
-110.17	-156.56
-113.83	-158.08
-120.54	-174.56
-121.77	-195.92
-114.75	-206.91
-103.15	-201.42
-94.91	-187.99
-93.99	-180.97
-96.44	-187.68
-96.13	-203.25
-89.72	-216.67
-81.48	-222.17
-77.21	-221.56
-78.74	-219.73
-79.35	-216.37
-71.41	-207.21
-53.1	-193.48
-32.35	-181.88
-20.14	-179.44
-20.75	-187.38
-29.3	-199.89
-37.84	-209.66
-40.59	-211.79
-37.23	-205.08
-29.91	-193.18
-20.45	-182.19
-10.99	-179.14
-3.97	-184.94
-0.31	-194.09
2.14	-196.84
7.02	-190.12
15.56	-179.75
25.33	-177.31
31.74	-184.94
32.65	-195.31
28.69	-199.28
24.72	-195.31
24.41	-190.73
29.6	-192.87
38.76	-198.97
48.83	-198.67
57.68	-188.29
63.48	-173.34
68.05	-165.1
72.94	-170.29
77.21	-184.63
81.79	-199.28
87.89	-208.13
93.99	-211.79
96.74	-209.96
93.69	-200.5
85.45	-186.16
76.29	-178.83
72.33	-188.9
74.46	-211.79
79.35	-228.58
82.7	-221.56
83.62	-192.87
83.01	-167.85
81.48	-170.59
79.35	-202.03
78.13	-236.51
80.57	-244.45
86.98	-218.51
94.6	-176.7
99.79	-146.48
101.32	-142.21
100.71	-158.39
101.32	-177
103.45	-183.72
106.51	-177.92
108.64	-166.63
109.56	-158.39
109.86	-158.69
109.25	-166.63
106.81	-178.83
104.06	-190.73
103.45	-196.53
105.9	-194.09
110.47	-184.33
115.36	-171.51
118.41	-159.91
119.93	-152.28
120.54	-151.06
122.38	-156.56
124.82	-167.24
126.65	-177.61
128.17	-178.22
134.28	-160.83
155.64	-122.99
202.94	-66.53
281.07	9.46
386.96	110.17
514.83	236.21
657.35	368.65
807.8	465.7
942.38	473.94
1013.18(R)	351.56
971.68	108.03
802.31	-189.21
544.13	-443.73
280.76	-568.85
90.64	-536.8
-1.83	-395.51
-32.04	-242
-55.24	-164.79
-98.88	-198.06
-150.76	-309.45
-179.44	-423.89
-162.66	-471.8
-106.51	-429.38
-35.71	-325.01
26.55	-216.06
68.05	-152.28
88.81	-146.79
96.13	-175.48
97.35	-201.72
97.96	-204.47
99.79	-188.29
102.23	-173.03
104.98	-170.29
108.64	-172.12
114.14	-161.74
120.24	-134.58
126.65	-106.51
132.45	-98.88
137.33	-118.71
140.99	-148.62
142.82	-164.49
141.3	-156.25
136.41	-134.89
131.23	-117.19
128.78	-110.78
130.92	-110.78
136.41	-109.86
142.21	-107.73
144.96	-109.25
144.96	-116.58
143.74	-125.73
143.74	-129.39
145.57	-124.82
147.71	-115.05
148.01	-107.12
145.26	-107.73
140.69	-115.97
137.33	-123.9
138.55	-121.46
144.04	-106.2
150.15	-90.33
152.28	-88.5
148.93	-105.29
142.52	-126.65
137.33	-130.62
135.19	-106.2
134.58	-66.83
132.75	-40.59
128.48	-47.91
123.9	-83.31
122.07	-119.02
125.43	-128.17
132.75	-104.06
140.99	-64.09
147.71	-32.04
151.67	-21.36
154.11	-27.47
157.47	-36.62
163.57	-39.98
172.12	-37.23
182.5	-33.26
194.4	-29.91
206.3	-27.47
216.67	-24.11
224	-20.45
228.27	-20.14
229.49	-25.63
228.88	-36.62
227.05	-50.35
224.3	-62.26
221.56	-70.8
220.34	-76.29
220.95	-82.09
221.86	-91.25
220.03	-103.76
213.93	-115.97
206.3	-120.85
201.42	-115.36
201.72	-101.62
204.77	-90.33
205.08	-92.16
200.81	-108.64
194.4	-127.56
191.96	-133.67
195.31	-120.85
201.11	-98.57
203.86	-84.84
201.42	-90.64
195.92	-112.61
190.43	-137.02
186.77	-150.15
184.63	-147.4
183.11	-133.67
183.11	-117.49
184.94	-108.34
187.68	-108.64
189.82	-113.53
192.26	-112.92
197.14	-101.32
205.08	-83.31
212.71	-69.89
216.06	-68.97
214.54	-79.04
210.88	-90.64
209.35	-97.05
212.71	-97.05
218.2	-94.6
223.08	-93.69
225.22	-93.69
224.91	-93.69
223.39	-92.77
223.39	-91.25
224.61	-89.72
226.14	-87.59
226.14	-83.31
224.3	-77.82
221.86	-72.63
222.17	-68.66
226.14	-65.61
232.24	-62.26
237.43	-58.29
238.34	-55.54
234.99	-56.15
230.41	-59.51
229.19	-63.78
233.46	-65.92
242.31	-65.61
250.24	-65.31
252.38	-66.53
248.11	-68.05
240.17	-68.36
234.07	-66.83
231.93	-65.61
233.46	-67.14
235.9	-71.41
236.82	-75.07
236.21	-74.77
234.68	-69.58
234.68	-62.87
237.73	-58.59
244.14	-59.51
251.46	-65
256.04	-73.24
255.74	-82.09
252.08	-89.72
248.72	-94.3
249.02	-94.91
251.77	-92.16
253.91	-89.11
252.99	-88.81
249.02	-92.16
245.36	-95.52
245.06	-95.21
247.5	-89.72
249.94	-83.01
249.63	-80.26
245.06	-83.01
238.95	-89.11
233.76	-94.3
231.02	-95.83
230.1	-94.6
230.1	-91.55
231.02	-86.06
233.46	-77.82
237.43	-68.05
241.7	-60.12
242.92	-56.76
238.65	-58.9
229.19	-65.31
217.9	-72.94
209.96	-79.35
207.52	-81.79
208.44	-78.13
209.05	-68.36
209.05	-51.27
215.45	-25.94
239.26	12.21
286.87	66.53
357.67	139.77
448.61	232.85
560.3	343.32
697.02	457.76
855.1	544.13
1002.5	549.62
1076.66(R)	422.36
1019.59	159.91
820.01	-166.63
534.67	-437.62
262.76	-551.15
85.75	-488.89
16.48	-329.9
5.19	-194.7
-11.29	-161.74
-58.29	-228.58
-115.36	-332.95
-141.91	-402.53
-115.05	-400.7
-44.86	-336.91
36.01	-248.41
98.57	-171.81
130.31	-127.87
136.41	-116.88
131.23	-122.68
127.56	-128.48
130	-124.82
136.72	-112.92
143.13	-99.79
147.4	-90.03
149.54	-83.62
151.06	-79.04
151.98	-76.6
151.67	-77.21
150.45	-81.48
149.84	-86.36
152.59	-87.89
159.3	-83.31
166.02	-74.77
166.63	-67.14
157.17	-64.39
141.6	-65.61
127.56	-66.22
122.68	-62.26
126.95	-53.41
134.28	-45.47
137.94	-44.25
135.8	-50.66
130.92	-60.12
127.56	-67.44
127.26	-68.36
128.78	-62.87
129.7	-54.02
129.09	-45.78
127.26	-39.98
124.51	-37.84
119.93	-38.15
114.14	-39.37
108.34	-38.15
104.37	-32.96
103.45	-24.41
104.37	-14.65
104.06	-5.8
101.32	0.31
96.74	3.97
93.08	7.32
93.38	13.12
98.27	23.8
105.29	39.06
111.39	55.24
113.83	67.44
112.3	72.02
109.25	69.89
108.95	66.83
113.53	67.44
122.38	72.33
132.14	77.82
139.77	78.74
144.04	72.02
145.87	61.34
148.01	50.35
150.76	42.72
153.81	37.23
155.64	31.43
154.11	23.8
148.01	13.12
137.63	1.22
125.73	-10.38
115.97	-20.75
110.78	-28.38
109.56	-33.87
110.17	-37.84
109.86	-41.81
105.59	-47.91
97.66	-57.37
87.59	-69.58
78.74	-81.79
73.85	-90.64
73.85	-94.3
76.6	-93.69
79.04	-90.94
77.82	-89.72
72.02	-90.03
63.48	-92.47
54.93	-95.52
48.83	-97.96
46.69	-98.57
47.61	-97.35
50.05	-94.3
53.1	-89.72
54.63	-84.84
54.32	-80.57
52.19	-77.82
48.52	-75.99
44.86	-75.68
42.72	-76.9
44.25	-80.87
48.52	-87.59
53.1	-94.91
54.63	-99.18
51.57	-97.05
44.86	-88.5
38.45	-76.6
36.62	-67.14
39.37	-63.78
44.86	-65.61
48.83	-67.75
49.44	-64.7
46.69	-54.02
43.03	-40.28
39.98	-31.43
38.15	-32.96
36.93	-42.72
35.4	-53.71
33.26	-56.76
30.82	-50.05
27.47	-40.89
24.11	-39.06
21.36	-48.22
21.06	-63.17
23.19	-74.77
26.25	-76.29
27.16	-72.33
24.41	-70.8
17.7	-75.68
10.99	-82.7
7.02	-84.53
7.32	-75.68
9.46	-59.2
11.6	-44.25
11.9	-38.76
10.38	-46.08
8.54	-61.04
7.32	-73.85
6.1	-75.38
3.66	-64.7
0	-48.22
-5.49	-36.62
-11.6	-36.62
-16.48	-47.3
-18.01	-62.26
-17.09	-75.07
-15.87	-83.31
-17.7	-85.75
-23.19	-82.4
-31.13	-75.07
-37.84	-66.83
-40.59	-61.65
-39.67	-61.95
-36.62	-68.66
-32.96	-79.35
-28.69	-86.36
-24.72	-78.43
-21.06	-43.33
-17.7	25.94
-11.9	125.12
2.14	238.04
29.91	336.91
72.02	393.68
122.07	391.24
171.51	326.23
214.84	213.01
250.24	73.24
278.32	-78.74
295.72	-239.87
296.02	-409.85
278.32	-580.75
246.58	-738.83
205.69	-871.58
160.52	-975.95
109.86	-1056.21
52.8	-1117.86
-7.63	-1159.36
-64.09	-1177.06
-107.12	-1170.35
-130.92	-1143.8
-132.45	-1100.46
-116.88	-1039.73
-94.91	-960.69
-78.43	-861.82
-76.29	-743.41
-90.03	-610.66
-113.83	-474.55
-141.91	-352.48
-169.98	-263.06
-195.62	-219.42
-215.76	-222.17
-229.8	-258.48
-240.48	-307.62
-251.46	-347.29
-262.76	-357.06
-266.42	-323.79
-250.24	-245.67
-208.74	-137.33
-148.93	-25.63
-88.5	64.09
-45.47	118.71
-26.86	142.21
-25.02	150.45
-26.86	157.47
-22.28	170.29
-11.9	186.77
-1.22	201.72
4.58	213.01
5.8	221.25
5.19	227.97
5.19	237.43
5.19	251.77
3.36	270.08
0	288.7
-2.44	302.73
-2.14	309.45
1.83	308.84
7.32	307.31
10.99	312.19
10.68	327.45
6.41	349.43
0.31	371.4
-5.19	387.88
-8.24	398.56
-8.85	408.94
-8.24	425.72
-8.24	449.22
-9.16	476.07
-9.46	503.54
-7.63	532.53
-3.66	562.74
1.83	592.65
7.02	619.2
10.68	640.26
13.43	658.87
15.87	680.54
19.23	704.65
22.89	723.88
25.02	729.37
24.11	717.16
20.45	692.14
16.48	664.37
16.78	640.87
22.89	621.64
32.65	599.98
41.81	569.46
48.22	528.26
52.8	484.01
57.07	447.69
61.65	424.8
64.7	412.6
62.87	398.56
56.76	367.74
50.05	315.86
46.69	253.91
48.22	201.72
52.49	173.34
54.93	166.02
52.19	164.49
44.56	151.06
34.79	118.1
27.47	75.38
23.19	36.62
20.75	9.16
16.17	-7.63
7.63	-19.84
-3.97	-33.57
-14.95	-47.91
-21.36	-58.29
-23.19	-61.34
-24.41	-58.9
-28.08	-56.15
-33.87	-57.68
-39.06	-64.09
-40.28	-72.02
-36.32	-76.6
-30.52	-76.6
-27.16	-73.24
-26.86	-66.83
-27.77	-59.2
-26.86	-53.71
-24.41	-54.32
-21.97	-62.56
-22.28	-73.55
-25.02	-79.96
-28.69	-75.99
-30.21	-63.17
-28.99	-48.52
-26.55	-38.76
-25.33	-36.32
-25.94	-39.98
-28.38	-45.78
-31.43	-48.52
-33.87	-43.64
-34.48	-30.82
-35.4	-14.04
-37.23	-2.14
-39.67	-0.31
-40.59	-7.63
-39.98	-16.48
-39.37	-19.23
-41.2	-11.9
-46.08	2.14
-51.88	14.34
-54.93	16.17
-54.63	4.88
-53.71	-12.82
-55.85	-27.16
-60.42	-30.82
-65	-27.77
-67.44	-26.55
-68.36	-32.65
-70.19	-41.81
-73.55	-43.64
-77.51	-31.74
-78.43	-11.6
-75.38	2.75
-69.89	1.22
-65.31	-14.65
-64.09	-35.4
-66.22	-50.05
-70.19	-54.93
-74.46	-53.41
-77.82	-51.88
-79.35	-52.8
-78.13	-54.93
-74.77	-57.98
-70.5	-61.95
-67.14	-67.14
-65.61	-72.94
-64.39	-76.6
-61.65	-76.9
-57.07	-73.24
-51.88	-67.44
-48.52	-62.56
-47.61	-59.81
-47.91	-58.9
-47.3	-57.68
-44.56	-52.49
-40.28	-43.33
-35.71	-34.18
-32.96	-31.43
-33.26	-36.93
-35.71	-46.39
-38.76	-51.27
-39.98	-46.08
-38.45	-34.48
-36.32	-25.02
-36.32	-24.11
-39.67	-30.82
-44.56	-38.15
-48.52	-39.98
-50.96	-34.48
-54.02	-25.33
-56.15	-13.12
-50.35	6.1
-26.55	40.59
23.19	97.96
99.79	181.27
200.81	290.83
324.71	420.23
471.19	549.93
630.8	643.01
768.74	644.84
828.25	508.42
761.41	238.65
563.96	-90.03
292.05	-361.63
37.54	-477.91
-128.17	-421.75
-195.62	-268.55
-210.27	-131.23
-228.88	-87.28
-273.44	-140.69
-324.4	-235.6
-345.15	-303.04
-315.55	-304.87
-247.19	-246.58
-169.68	-162.66
-109.56	-90.64
-76.29	-50.66
-63.48	-40.59
