-62.26	-96.13
-63.48	-88.5
-66.53	-80.57
-70.19	-79.65
-73.24	-87.28
-74.77	-97.35
-75.38	-103.45
-75.99	-103.45
-77.51	-100.4
-79.65	-99.18
-81.79	-103.15
-83.92	-112.92
-85.45	-126.34
-85.75	-138.85
-85.45	-146.48
-84.84	-146.48
-84.53	-138.24
-83.92	-126.65
-82.7	-117.19
-81.18	-112.92
-79.35	-112.92
-79.35	-113.53
-82.09	-112
-86.36	-108.03
-88.5	-102.54
-85.75	-98.27
-77.51	-95.21
-67.75	-92.16
-61.65	-86.98
-60.42	-76.9
-59.81	-59.51
-54.02	-36.01
-40.28	-10.07
-22.89	11.6
-9.16	25.33
-3.36	32.04
-3.66	35.71
-3.66	40.59
0.92	48.83
9.77	57.98
19.53	64.39
27.16	66.22
31.13	62.56
28.99	53.1
19.53	39.37
1.53	22.89
-23.19	4.27
-49.44	-17.09
-71.72	-41.5
-86.36	-68.97
-91.86	-97.05
-90.33	-120.85
-85.75	-137.63
-83.31	-146.18
-85.14	-147.71
-90.64	-144.96
-96.13	-140.69
-97.96	-136.72
-96.44	-133.36
-93.08	-130.62
-90.33	-128.17
-89.11	-124.82
-92.16	-119.32
-104.68	-109.56
-125.12	-94.6
-138.85	-77.51
-119.02	-64.7
-39.67	-57.98
101.32	-48.22
268.55	-13.43
399.78	66.83
443.42	189.21
386.66	321.66
262.76	414.43
129.39	428.77(R)
32.96	361.33
-13.12	245.36
-22.89	128.48
-19.84	49.44
-21.36	18.31
-35.71	15.26
-65	7.02
-109.56	-31.74
-162.05	-103.45
-205.69	-181.58
-223.08	-231.63
-206.3	-236.82
-164.18	-207.21
-119.93	-170.29
-93.08	-149.23
-87.28	-148.01
-92.77	-155.33
-97.35	-159.61
-95.83	-158.39
-91.86	-156.25
-90.64	-156.25
-93.38	-155.94
-96.13	-151.67
-95.21	-144.04
-90.64	-137.33
-85.45	-137.02
-81.48	-143.43
-80.87	-152.89
-83.31	-158.69
-87.59	-157.78
-91.86	-152.28
-93.99	-145.87
-91.86	-142.52
-85.14	-141.6
-77.51	-140.99
-71.72	-138.24
-71.11	-134.89
-75.99	-132.14
-83.92	-130
-90.33	-126.65
-92.47	-121.77
-89.11	-116.58
-83.31	-114.44
-77.82	-117.8
-75.68	-126.65
-78.43	-137.33
-86.06	-146.18
-97.05	-150.76
-108.95	-149.54
-119.02	-144.04
-124.82	-137.33
-126.95	-132.45
-127.87	-130.62
-130.31	-131.53
-135.19	-133.67
-141.6	-135.5
-148.62	-137.02
-155.03	-138.55
-161.13	-138.55
-166.93	-134.28
-171.81	-124.51
-175.78	-110.78
-177.92	-96.44
-176.7	-85.75
-171.51	-78.74
-160.83	-72.63
-144.96	-64.09
-126.65	-51.57
-108.64	-36.62
-93.69	-23.5
-80.26	-13.73
-64.7	-6.1
-45.17	1.83
-23.19	11.29
-4.27	19.84
6.41	22.89
7.02	18.31
2.44	9.46
-1.53	2.44
-2.14	0.61
0	2.14
1.83	1.22
0.92	-6.1
-2.75	-19.23
-7.32	-32.65
-9.77	-40.89
-8.85	-41.2
-5.8	-35.1
-3.05	-26.55
-3.05	-20.14
-7.32	-18.01
-13.73	-20.14
-18.31	-24.11
-18.92	-26.55
-15.56	-26.86
-11.9	-26.55
-11.29	-27.77
-14.95	-31.13
-21.67	-36.01
-28.08	-40.89
-31.43	-44.86
-31.13	-48.22
-30.21	-50.35
-30.52	-48.52
-32.35	-41.81
-32.65	-32.35
-28.38	-25.33
-19.84	-25.63
-12.82	-34.18
-13.12	-48.83
-22.89	-63.48
-36.93	-72.94
-48.22	-74.46
-50.66	-67.44
-43.95	-54.93
-32.96	-40.28
-23.19	-28.08
-18.31	-20.45
-19.23	-17.7
-23.8	-18.92
-27.47	-19.84
-26.55	-17.09
-18.92	-7.93
-7.02	7.93
5.19	28.08
14.04	50.35
19.53	73.55
24.11	97.66
30.52	120.85
40.89	138.55
52.49	146.48
63.78	145.57
73.24	140.38
79.96	136.11
85.45	135.19
88.5	136.41
87.28	135.8
78.74	130.31
62.26	117.19
39.37	95.83
14.34	69.27
-7.93	41.2
-24.11	16.17
-32.96	-5.49
-35.4	-24.11
-33.57	-40.59
-30.52	-52.19
-31.13	-57.68
-36.01	-58.59
-42.72	-57.98
-45.78	-58.59
-43.03	-61.04
-34.79	-63.17
-26.86	-61.95
-25.33	-56.46
-33.57	-47
-52.8	-33.26
-80.26	-15.87
-102.23	0.31
-93.38	8.24
-27.47	6.41
105.59	4.88
280.15	28.08
437.62	100.4
514.83	221.86
482.18	361.02
361.94	467.83
213.93	501.10(R)
97.96	452.58
39.98	349.73
28.99	236.82
36.32	149.23
36.93	103.45
21.67	91.55
-8.85	88.2
-51.27	67.75
-98.88	16.17
-139.77	-57.37
-160.52	-125.43
-154.42	-161.74
-126.34	-159.91
-91.55	-135.5
-66.83	-111.69
-57.68	-101.62
-57.68	-101.93
-57.68	-101.93
-53.1	-95.21
-46.39	-84.84
-43.03	-78.13
-46.08	-79.65
-52.8	-87.28
-56.76	-95.21
-52.8	-99.18
-43.64	-98.57
-35.1	-94.91
-32.96	-90.03
-37.84	-84.53
-45.78	-77.51
-50.35	-68.66
-48.22	-60.73
-40.89	-54.93
-32.65	-51.88
-28.08	-52.19
-29.3	-55.24
-35.4	-61.65
-43.33	-70.5
-48.83	-78.43
-49.74	-81.48
-47.3	-78.13
-44.25	-72.33
-43.03	-69.27
-44.86	-71.11
-47.3	-75.38
-49.13	-78.74
-51.27	-80.26
-55.85	-81.48
-64.09	-83.62
-74.46	-86.67
-83.31	-86.98
-86.98	-81.79
-86.36	-74.16
-85.45	-69.58
-88.2	-70.8
-97.05	-75.99
-110.78	-81.48
-126.65	-83.62
-140.38	-82.09
-149.54	-78.74
-152.59	-74.46
-149.84	-67.44
-142.21	-55.85
-131.23	-39.98
-120.54	-22.89
-112.61	-7.93
-107.12	3.05
-101.93	10.07
-92.47	15.56
-75.99	22.28
-53.71	31.43
-30.52	41.2
-10.07	49.13
5.8	52.49
17.7	51.27
26.25	49.13
32.04	48.22
35.1	49.13
35.71	49.44
34.48	49.44
32.04	49.13
29.3	47.61
26.55	44.25
24.41	37.54
22.28	29.3
20.75	23.19
19.23	21.36
17.09	22.28
14.65	21.36
13.12	17.7
12.21	13.12
13.12	10.38
15.26	10.99
18.31	13.73
20.75	17.7
20.45	21.97
18.01	25.02
13.73	25.33
9.46	21.67
6.41	14.65
4.88	7.32
3.36	0.92
2.44	-4.27
3.36	-7.63
5.49	-8.24
7.02	-4.58
7.02	2.75
5.8	9.16
4.58	9.77
3.05	3.66
0	-6.71
-5.49	-17.09
-11.29	-23.19
-14.65	-22.58
-13.12	-15.56
-8.24	-5.49
-2.75	3.36
0.61	8.24
2.75	9.46
6.1	11.9
11.6	21.67
20.14	39.98
28.08	61.04
32.04	76.6
31.13	81.79
28.38	79.35
28.38	78.13
35.4	87.59
49.44	110.47
66.83	141.3
82.09	170.59
91.86	188.29
95.83	190.73
96.13	181.88
96.13	170.59
98.27	164.49
102.54	165.41
104.06	166.02
98.27	158.39
83.01	139.16
59.81	112
34.18	83.92
10.68	58.59
-7.63	35.71
-20.45	14.04
-27.47	-5.8
-28.99	-21.06
-26.25	-29.6
-21.06	-32.35
-15.26	-32.35
-11.6	-32.65
-10.68	-35.4
-12.51	-39.37
-14.95	-42.42
-17.4	-41.5
-19.84	-34.18
-26.55	-18.92
-41.81	3.97
-62.87	30.21
-70.19	52.19
-34.79	61.95
65	59.51
221.25	60.73
388.49	93.38
504.15	178.83
523.07	309.45
444.95	444.03
312.19	529.48(R)
181.58	528.26
93.08	445.86
53.1	322.88
44.25	210.57
44.56	144.35
39.98	125.12
25.02	125.43
-2.14	110.47
-41.81	58.9
-87.89	-22.58
-126.04	-104.06
-140.69	-152.28
-126.04	-153.2
-91.86	-121.46
-56.76	-85.14
-36.01	-66.22
-30.52	-67.14
-32.04	-75.99
-32.65	-80.57
-30.52	-78.13
-27.77	-72.63
-25.94	-69.89
-24.72	-70.5
-22.58	-73.55
-20.75	-76.29
-19.84	-76.29
-19.84	-72.94
-19.84	-67.44
-19.23	-64.39
-18.62	-68.36
-20.45	-78.13
-23.8	-87.28
-26.25	-87.28
-27.16	-76.6
-25.33	-61.34
-22.58	-51.27
-21.06	-50.96
-22.28	-57.68
-26.25	-64.7
-30.82	-66.53
-33.26	-62.56
-31.13	-54.63
-26.25	-46.69
-23.19	-42.11
-25.94	-44.86
-34.18	-57.07
-42.72	-74.16
-46.39	-89.42
-45.17	-96.44
-43.33	-95.52
-46.08	-90.33
-55.85	-86.06
-69.58	-82.4
-81.79	-77.82
-90.03	-73.24
-94.3	-72.33
-96.74	-77.21
-100.4	-86.06
-106.81	-94.3
-115.97	-96.44
-124.82	-91.25
-131.84	-81.48
-135.19	-69.89
-133.67	-57.37
-127.26	-42.72
-116.58	-26.25
-103.45	-9.77
-89.72	3.05
-77.82	8.54
-67.44	8.85
-55.85	10.38
-40.28	19.84
-21.06	37.23
-1.83	55.54
13.73	67.14
23.5	68.05
28.99	61.65
32.96	53.41
37.23	47
42.11	43.33
45.78	41.81
45.47	42.42
40.59	43.03
31.74	38.76
23.19	28.38
19.23	15.56
20.75	6.71
24.72	6.41
27.47	12.82
27.47	19.84
25.94	22.89
25.02	21.67
23.8	19.53
21.06	16.78
16.78	13.73
14.65	10.68
17.09	7.02
22.28	2.75
26.25	-1.22
25.63	-5.19
20.45	-6.71
15.56	-4.27
13.43	1.53
13.12	6.41
12.21	8.24
9.16	5.49
4.88	-0.31
2.14	-7.63
2.14	-14.34
3.66	-19.23
4.88	-21.36
4.27	-20.45
2.44	-18.62
2.44	-18.31
5.19	-20.75
9.77	-24.11
13.12	-25.02
12.51	-22.28
8.54	-14.95
5.49	-3.36
6.71	13.12
13.43	33.26
21.97	53.41
28.38	68.05
31.43	73.24
32.35	69.27
33.26	62.87
36.32	62.56
40.89	74.77
48.22	101.01
59.81	135.5
72.94	164.49
83.92	175.48
90.94	166.63
93.38	148.01
94.91	136.72
98.57	140.69
102.23	153.81
100.71	160.22
89.11	147.4
67.75	116.58
41.5	78.13
16.48	41.2
-1.83	9.77
-11.6	-14.65
-12.51	-30.82
-8.24	-36.32
-4.58	-32.65
-5.49	-26.86
-11.9	-28.08
-19.84	-39.98
-24.11	-57.37
-21.67	-71.41
-16.48	-76.9
-14.04	-73.55
-17.09	-64.39
-24.11	-50.96
-32.96	-32.65
-43.64	-9.77
-52.19	13.73
-45.47	28.99
-2.14	32.35
96.44	30.52
242.61	43.64
392.76	96.13
488.28	198.67
490.42	333.56
404.36	459.59
277.1	530.40(R)
162.96	519.71
94.3	436.71
68.05	318.6
61.65	208.44
54.63	135.19
38.45	99.18
12.51	79.96
-21.36	51.27
-62.26	-2.44
-104.06	-75.38
-134.28	-144.96
-140.69	-186.16
-120.85	-190.12
-84.53	-166.02
-49.13	-132.75
-28.99	-105.59
-25.63	-89.11
-31.13	-80.87
-38.45	-79.04
-42.42	-82.7
-42.72	-91.86
-40.59	-103.45
-38.15	-113.53
-37.23	-118.71
-37.84	-118.1
-38.15	-111.69
-35.1	-101.01
-27.47	-90.33
-18.92	-85.14
-16.17	-88.5
-20.75	-97.35
-28.69	-104.68
-34.48	-103.45
-35.4	-92.16
-33.87	-76.29
-33.57	-64.39
-34.79	-61.04
-34.79	-65
-31.74	-72.33
-27.16	-79.35
-24.11	-85.75
-25.94	-93.99
-32.96	-103.15
-42.11	-109.25
-48.52	-107.12
-49.44	-96.74
-45.78	-83.62
-42.11	-74.77
-42.11	-75.07
-47	-83.62
-54.93	-97.66
-64.39	-112.3
-75.68	-124.51
-88.5	-130.92
-100.4	-129.09
-107.73	-119.93
-109.56	-108.03
-108.95	-99.18
-110.17	-97.05
-114.75	-98.88
-121.15	-98.27
-126.04	-92.16
-128.17	-79.65
-127.26	-63.48
-124.82	-47.61
-120.85	-34.18
-113.83	-24.11
-102.23	-18.01
-85.14	-14.34
-64.39	-9.16
-44.86	0.61
-29.91	16.48
-20.75	33.87
-13.73	46.08
-2.44	49.44
14.04	44.56
31.74	36.93
43.64	32.35
46.08	31.74
41.2	31.43
33.87	25.94
28.99	15.87
26.55	6.41
24.72	4.58
22.28	10.68
20.14	19.53
20.14	23.8
22.58	20.14
25.02	11.9
24.72	4.88
20.75	0.61
14.04	-2.14
7.63	-4.88
5.19	-7.32
8.54	-7.32
15.87	-4.58
23.8	-0.31
28.38	4.27
27.16	10.38
20.75	17.4
12.21	21.67
4.88	17.4
1.53	4.88
3.97	-10.38
11.29	-19.53
18.62	-18.31
21.97	-10.07
19.23	-1.83
12.21	2.14
5.49	1.83
3.05	-0.92
3.36	-5.49
2.14	-12.51
-1.83	-20.45
-6.1	-25.94
-7.32	-25.63
-3.36	-19.53
3.36	-10.68
8.24	-3.66
8.85	-0.31
7.02	1.22
4.58	3.36
4.27	8.54
6.71	18.31
12.82	32.04
21.67	47.3
32.04	60.42
41.81	68.66
48.52	71.11
50.96	72.33
50.66	79.04
51.57	95.52
55.54	120.85
63.48	147.4
72.94	167.24
80.87	175.48
86.36	174.26
92.47	170.29
100.71	168.46
109.25	168.46
111.69	165.1
102.84	154.11
81.48	135.5
52.8	112.92
25.33	87.59
3.66	57.98
-11.29	22.89
-19.84	-12.82
-21.97	-39.98
-18.92	-49.74
-12.51	-44.25
-7.32	-33.26
-7.02	-27.16
-11.6	-29.6
-16.78	-35.4
-18.31	-38.15
-14.95	-37.23
-10.07	-35.71
-8.85	-35.1
-17.7	-31.74
-38.15	-18.62
-61.95	5.49
-68.36	32.35
-29.3	51.88
73.55	62.56
229.49	78.13
393.07	123.29
502.93	213.62
517.27	337.52
438.84	458.37
311.58	530.09(R)
190.43	522.46
112	439.45
79.35	317.08
72.94	202.33
72.94	131.53
67.75	111.69
54.32	119.02
28.99	116.88
-11.6	76.9
-63.78	-1.83
-112	-90.94
-137.33	-152.59
-127.87	-166.32
-90.33	-139.47
-46.08	-100.1
-16.17	-73.24
-7.93	-65.31
-14.95	-68.36
-24.41	-70.5
-29.3	-68.05
-28.38	-63.78
-25.63	-61.65
-22.89	-62.87
-20.14	-65
-15.87	-66.53
-11.29	-66.22
-7.93	-64.09
-8.85	-61.04
-13.73	-59.2
-19.53	-60.12
-23.5	-64.09
-22.58	-69.27
-16.78	-72.02
-10.38	-68.97
-5.8	-59.51
-4.58	-46.69
-6.71	-36.93
-11.29	-36.01
-17.09	-44.25
-23.8	-56.15
-30.21	-65.92
-33.87	-69.89
-35.4	-69.89
-35.4	-70.19
-36.62	-72.63
-39.98	-75.68
-45.47	-77.21
-50.96	-75.07
-55.85	-69.27
-59.2	-63.48
-62.87	-61.34
-68.36	-65.31
-75.68	-74.77
-84.53	-85.45
-93.69	-92.77
-102.23	-95.52
-110.47	-95.21
-118.41	-94.3
-125.43	-92.16
-130.92	-86.67
-134.89	-76.6
-139.16	-64.39
-144.96	-54.32
-151.98	-47.91
-155.94	-44.56
-153.2	-40.89
-142.82	-33.26
-126.95	-21.36
-108.95	-4.88
-91.25	14.04
-74.16	33.26
-57.37	48.83
-39.98	57.98
-22.89	60.12
-7.63	57.07
3.05	52.19
8.54	49.13
10.38	49.13
11.29	50.96
12.51	51.88
14.04	49.44
15.26	43.33
16.17	36.62
16.48	32.65
15.87	31.74
13.12	31.13
7.63	27.47
1.22	20.45
-3.05	11.6
-3.36	4.88
-0.61	3.05
4.27	6.1
8.54	12.21
9.16	17.7
4.88	19.53
-4.58	16.78
-15.56	11.29
-23.19	7.02
-23.5	5.49
-17.7	5.19
-10.68	3.97
-7.02	1.53
-8.24	-0.92
-12.82	-1.83
-17.4	-2.44
-19.84	-4.88
-20.75	-12.51
-21.67	-22.89
-24.11	-31.43
-27.77	-34.18
-32.04	-30.82
-34.79	-25.02
-34.18	-20.75
-30.52	-19.23
-25.94	-18.62
-22.89	-16.48
-23.8	-13.43
-27.77	-12.51
-33.57	-15.87
-38.76	-22.58
-42.42	-29.3
-43.03	-32.65
-40.89	-31.74
-36.62	-27.16
-31.74	-21.97
-29.6	-19.53
-31.43	-21.36
-37.84	-27.16
-44.86	-33.26
-50.35	-36.93
-52.49	-37.23
-51.27	-36.62
-49.13	-37.54
-47.3	-40.28
-45.17	-41.81
-41.5	-37.84
-36.62	-29.6
-32.96	-20.45
-33.26	-14.95
-37.54	-14.65
-42.42	-16.48
-43.33	-15.87
-38.15	-9.77
-29.3	0.31
-22.28	11.9
-20.14	21.97
-21.97	30.21
-22.58	38.76
-17.7	50.35
-7.32	68.05
5.19	91.55
16.48	116.58
24.72	136.41
31.13	146.18
37.23	145.57
42.72	140.08
47.3	136.72
52.19	139.47
57.07	147.09
61.34	152.59
61.65	148.32
53.41	130.62
33.87	102.23
5.8	69.58
-24.11	37.23
-48.83	6.71
-62.56	-23.19
-65.92	-50.05
-63.78	-68.36
-61.65	-74.16
-62.56	-69.58
-65.31	-61.95
-67.14	-59.2
-65.92	-63.48
-62.56	-70.8
-59.51	-75.99
-57.98	-75.38
-58.59	-71.41
-63.17	-65.31
-74.77	-56.46
-94.91	-42.42
-115.36	-23.8
-114.44	-7.02
-64.39	2.44
50.66	6.41
214.54	22.58
376.89	75.99
474.55	177.92
467.53	309.14
364.69	425.72
216.98	480.65(R)
86.06	451.36
10.07	354.92
-12.21	233.76
-6.71	129.7
0.31	66.83
-6.71	43.33
-29.6	36.62
-66.22	19.23
-111.69	-27.77
-156.86	-100.71
-187.68	-174.87
-193.18	-217.9
-172.42	-214.54
-137.94	-177.61
-106.81	-136.11
-90.03	-114.44
-87.59	-116.88
-90.94	-130
-92.47	-137.94
-89.42	-134.89
-82.7	-125.12
-75.38	-114.75
-69.89	-106.81
-66.83	-100.1
-66.83	-93.38
-68.36	-87.28
-70.19	-83.92
-70.8	-84.84
-69.58	-90.03
-68.05	-98.57
-67.14	-109.86
-68.36	-120.85
-70.5	-130
-73.24	-135.8
-75.07	-137.94
-76.29	-137.94
-78.13	-136.11
-80.87	-132.14
-84.84	-125.43
-87.59	-117.19
-87.28	-109.56
-83.92	-104.06
-79.04	-101.62
-75.68	-100.4
-75.07	-98.57
-78.13	-96.13
-84.53	-95.21
-93.08	-97.96
-102.23	-104.98
-110.78	-114.75
-116.88	-122.68
-120.85	-126.34
-122.99	-125.12
-125.12	-122.07
-129.39	-121.15
-138.55	-124.51
-152.89	-130
-169.37	-134.89
-184.63	-136.72
-194.4	-135.8
-198.36	-133.36
-198.67	-130.92
-198.06	-127.26
-198.36	-120.24
-199.28	-108.95
-198.67	-94.91
-192.87	-78.74
-180.05	-62.87
-161.74	-47
-140.99	-31.43
-121.77	-16.78
-105.9	-3.66
-90.64	6.41
-73.55	12.82
-54.02	15.56
-34.48	15.26
-18.31	12.51
-7.93	9.46
-2.44	7.32
-0.31	6.1
-0.61	5.19
-2.14	3.97
-3.97	3.36
-5.49	4.27
-4.88	6.41
-1.83	8.54
0.92	8.24
0.61	5.19
-3.66	1.22
-10.38	-1.22
-15.56	-1.83
-16.17	-2.44
-12.82	-5.49
-9.46	-11.6
-7.63	-18.31
-8.24	-23.5
-10.07	-25.94
-11.6	-25.33
-13.73	-22.58
-16.78	-19.53
-18.62	-17.4
-18.01	-18.92
-15.56	-24.41
-13.73	-31.74
-15.26	-36.62
-19.84	-36.32
-24.11	-31.13
-25.94	-25.02
-25.02	-21.36
-23.5	-20.75
-24.11	-22.28
-26.86	-25.33
-29.3	-31.13
-30.52	-40.59
-30.21	-52.19
-28.69	-61.34
-27.77	-65.31
-29.3	-64.09
-33.57	-60.12
-38.76	-55.85
-40.89	-52.19
-37.54	-47.61
-30.21	-41.5
-24.11	-36.62
-23.5	-36.01
-29.91	-41.5
-39.06	-50.66
-45.78	-58.9
-46.08	-62.26
-39.67	-59.81
-30.52	-53.41
-23.5	-46.39
-21.36	-41.2
-24.41	-37.23
-29.6	-32.35
-32.04	-23.5
-28.69	-9.46
-20.45	7.32
-10.99	23.19
-3.36	35.71
1.53	46.08
4.88	58.59
11.29	76.9
21.06	99.79
33.26	121.46
44.56	135.8
53.1	140.99
59.2	140.38
64.7	139.16
71.41	140.38
77.82	142.82
79.65	140.38
72.33	130
54.63	111.39
29.3	87.59
2.75	61.34
-20.14	32.96
-37.54	2.14
-48.83	-29.6
-54.02	-57.68
-54.02	-75.99
-50.05	-81.79
-45.47	-78.74
-43.95	-72.94
-45.78	-70.19
-49.13	-71.72
-50.35	-75.68
-49.13	-79.35
-46.39	-80.57
-45.17	-78.74
-48.83	-74.16
-60.42	-64.09
-81.79	-46.08
-105.9	-22.58
-112	-3.05
-71.72	4.88
33.87	1.83
195.31	5.49
365.3	44.25
480.35	135.5
494.38	265.81
406.49	393.37
261.23	466.61(R)
119.32	453.8
24.72	363.46
-13.43	236.82
-14.95	122.99
-6.71	55.24
-7.02	37.54
-23.5	45.78
-56.15	46.08
-101.32	13.12
-149.54	-54.63
-185.55	-133.67
-195.01	-189.51
-174.56	-201.72
-134.89	-176.39
-96.13	-139.47
-74.46	-116.27
-72.33	-115.36
-79.65	-126.95
-85.14	-135.5
-83.01	-133.67
-74.46	-124.21
-65.61	-114.44
-61.34	-108.03
-61.65	-106.81
-63.48	-108.95
-65.31	-114.14
-66.22	-121.46
-66.53	-128.48
-66.53	-132.45
-66.22	-132.14
-65.31	-127.26
-64.39	-118.71
-65	-108.64
-67.14	-99.49
-69.58	-93.38
-69.27	-92.47
-65.92	-96.44
-61.65	-103.15
-61.04	-108.95
-65.31	-112.3
-72.33	-113.53
-78.43	-112.61
-80.57	-109.56
-79.35	-105.59
-78.13	-103.76
-79.04	-106.2
-82.7	-113.22
-87.28	-121.46
-92.47	-126.95
-97.96	-127.56
-103.76	-126.34
-109.25	-126.65
-114.14	-130.31
-118.41	-136.41
-124.82	-143.13
-134.58	-148.01
-147.09	-150.45
-160.52	-149.84
-172.12	-147.09
-179.75	-141.6
-184.02	-134.58
-186.46	-125.43
-187.99	-114.75
-188.9	-104.06
-187.68	-95.83
-182.8	-87.89
-174.87	-77.51
-165.41	-61.34
-154.72	-39.67
-141.91	-18.01
-125.73	-3.36
-105.9	2.44
-84.53	5.19
-64.09	11.6
-47	22.89
-32.65	34.18
-20.45	37.84
-10.99	29.91
-4.88	16.17
-1.83	6.71
0	5.8
2.75	10.07
7.93	11.9
12.51	7.93
12.51	1.22
6.71	0
-0.92	6.71
-6.41	15.26
-7.02	15.87
-4.58	4.88
-2.44	-11.9
-3.66	-23.5
-7.02	-23.5
-9.16	-12.82
-8.54	1.53
-6.1	13.73
-5.19	18.62
-6.41	15.26
-9.46	4.58
-10.99	-10.38
-10.07	-24.11
-9.16	-30.21
-9.77	-26.86
-12.82	-18.31
-15.87	-10.07
-17.4	-6.1
-16.78	-7.02
-16.17	-11.29
-18.01	-16.78
-21.36	-21.67
-23.8	-25.63
-24.11	-28.99
-21.97	-31.43
-19.53	-33.26
-18.62	-33.87
-18.92	-32.35
-20.14	-28.38
-20.75	-26.25
-20.75	-28.38
-20.75	-35.71
-21.67	-43.33
-24.11	-46.08
-27.16	-41.5
-29.3	-31.74
-28.38	-21.67
-24.11	-12.82
-18.31	-4.27
-12.21	6.71
-6.71	19.53
-1.22	32.96
5.19	43.33
12.82	49.74
19.53	55.54
25.02	65.61
30.82	85.14
38.76	112.61
49.13	139.47
60.42	155.94
70.19	156.86
76.9	147.71
80.87	138.85
84.23	137.33
88.2	140.99
90.03	142.21
86.06	133.97
71.41	115.05
46.39	91.55
14.95	67.44
-14.65	43.33
-35.1	16.48
-43.33	-15.26
-42.11	-48.83
-38.15	-75.99
-36.93	-90.03
-39.98	-89.72
-43.95	-80.26
-44.86	-69.89
-41.2	-65.92
-35.71	-68.97
-32.65	-75.38
-33.26	-78.13
-36.62	-73.24
-43.03	-61.65
-55.24	-46.39
-76.29	-29.3
-99.18	-13.43
-101.32	-1.22
-52.19	5.8
66.22	11.6
240.78	29.91
419.92	81.79
536.5	177.31
547.49	304.57
456.54	426.33
310.97	498.66(R)
171.51	493.16
76.29	416.26
28.99	302.12
11.29	192.26
2.75	116.88
-8.85	79.65
-27.77	61.65
-57.07	38.45
-97.05	-5.49
-140.99	-68.05
-174.26	-130.31
-182.8	-170.9
-162.05	-178.83
-122.38	-160.83
-81.79	-133.97
-56.76	-113.83
-51.27	-105.29
-56.46	-103.76
-61.34	-102.84
-59.81	-101.32
-53.1	-99.79
-47	-98.57
-45.17	-94.91
-46.08	-87.89
-46.69	-79.96
-46.39	-78.43
-47.3	-86.06
-50.66	-98.88
-55.54	-108.34
-57.98	-108.95
-54.63	-101.01
-47.61	-91.86
-42.11	-88.81
-42.72	-93.99
-49.74	-104.37
-57.37	-111.69
-59.81	-109.86
-54.93	-98.27
-47.3	-83.31
-42.42	-73.24
-44.25	-72.02
-50.96	-76.9
-56.46	-80.26
-56.76	-79.96
-53.71	-78.74
-53.41	-81.48
-58.59	-89.11
-68.05	-96.74
-75.99	-98.57
-78.74	-93.38
-76.6	-86.36
-75.38	-84.53
-78.74	-90.33
-86.67	-100.71
-95.21	-109.25
-101.93	-111.39
-107.42	-107.12
-114.44	-99.79
-124.51	-92.16
-135.5	-86.36
-142.82	-81.79
-143.74	-77.82
-140.38	-73.55
-138.55	-68.97
-140.69	-62.26
-143.43	-52.8
-141.91	-39.67
-133.36	-23.5
-118.71	-5.49
-101.01	14.65
-81.79	34.48
-59.81	50.96
-37.23	60.42
-17.4	59.81
-3.36	51.88
4.88	43.03
11.29	38.76
19.23	40.89
28.69	47
36.62	54.32
40.59	61.04
39.67	65.31
36.32	65.92
32.65	60.73
30.52	50.05
29.3	37.54
27.47	27.47
24.41	22.89
21.36	23.5
20.14	26.55
22.28	29.3
26.55	29.91
29.3	27.77
28.69	24.72
24.11	22.28
17.7	22.28
13.43	23.8
13.73	25.33
18.01	26.25
22.28	26.55
22.89	26.55
19.84	27.16
14.65	26.55
11.29	22.89
10.99	16.17
14.04	10.68
20.14	10.68
26.55	16.78
30.21	24.72
27.77	27.47
18.62	21.97
7.02	13.43
-0.92	9.77
-0.92	13.12
5.19	19.53
13.73	21.67
20.75	17.7
23.5	10.68
21.97	6.41
15.56	7.32
5.8	10.38
-2.75	13.43
-4.27	17.09
3.36	23.19
16.78	32.96
28.99	44.25
33.57	53.71
30.82	60.42
25.94	66.22
25.63	75.68
32.35	91.25
43.95	113.83
56.46	139.16
65.92	161.74
72.94	176.7
79.65	182.8
87.59	182.19
98.27	179.75
110.17	180.05
120.85	184.94
126.04	189.51
121.15	186.77
104.98	172.12
79.65	146.79
51.27	117.19
25.94	87.89
6.1	60.73
-7.32	36.01
-13.73	15.87
-14.65	2.44
-12.82	-6.1
-11.6	-18.01
-13.73	-39.06
-17.7	-65.31
-18.62	-84.84
-14.34	-86.06
-6.41	-69.58
-0.31	-47.91
0.92	-34.48
-3.66	-32.96
-14.04	-34.18
-31.74	-25.33
-53.71	-1.53
-65.92	29.3
-43.95	54.32
35.1	68.05
174.56	80.57
341.19	115.97
477.91	195.62
532.84	318.3
489.5	453.49
374.76	552.98
238.95	576.17(R)
127.87	515.44
62.26	400.09
35.1	276.18
29.3	184.94
28.69	140.99
22.89	129.09
6.41	119.63
-23.5	85.45
-65	18.31
-108.03	-65.61
-136.41	-136.11
-137.02	-168.46
-109.56	-159.61
-68.97	-126.65
-35.1	-93.99
-20.14	-74.46
-21.06	-66.83
-25.94	-63.78
-25.63	-60.73
-19.84	-58.29
-14.95	-59.51
-14.65	-62.56
-17.7	-64.7
-19.53	-63.78
-17.4	-61.65
-13.43	-61.34
-11.6	-65
-14.34	-70.8
-20.75	-76.29
-27.77	-78.43
-30.82	-75.99
-29.3	-69.27
-24.72	-59.51
-19.53	-49.13
-16.48	-38.76
-15.26	-30.21
-14.04	-25.02
-11.9	-24.72
-9.46	-29.3
-8.85	-37.54
-11.9	-45.78
-18.62	-51.88
-25.94	-55.54
-30.82	-57.98
-31.13	-59.51
-28.69	-59.51
-27.16	-56.76
-28.69	-51.88
-34.48	-47.61
-42.42	-47.61
-50.05	-53.41
-56.15	-63.17
-61.04	-72.94
-66.53	-79.04
-72.63	-79.65
-79.35	-75.38
-86.06	-69.58
-92.16	-63.48
-96.44	-58.59
-99.49	-54.32
-101.62	-49.13
-104.06	-42.72
-107.73	-36.01
-112	-29.3
-115.66	-23.5
-116.27	-18.31
-111.69	-13.12
-102.54	-5.8
-88.81	5.8
-71.11	24.11
-50.96	47.61
-29.6	71.41
-9.46	87.89
7.32	92.16
19.84	85.75
28.08	75.68
33.87	69.89
37.54	71.11
40.59	76.6
44.25	80.26
47.91	78.74
50.66	72.94
52.19	66.22
53.1	62.56
53.41	62.87
51.57	65.61
47	67.75
39.06	67.75
31.43	65
27.77	61.65
29.3	59.81
34.79	60.12
39.98	59.81
42.11	56.76
41.5	51.57
39.67	48.52
37.23	50.35
35.1	56.46
33.26	61.04
32.35	59.2
31.74	51.57
31.13	43.95
31.43	41.81
32.96	47
36.62	55.54
41.2	62.26
43.64	64.7
41.2	63.48
33.26	61.34
23.5	58.59
16.17	54.93
14.65	50.35
18.92	45.78
25.94	43.33
30.82	43.95
32.04	46.39
29.91	48.22
26.25	48.22
23.5	47.3
22.58	47.61
23.5	49.13
25.02	50.66
27.16	50.35
30.21	49.44
35.1	52.49
41.5	64.39
46.08	85.45
46.39	109.56
42.11	128.17
38.76	136.11
41.81	136.41
54.02	137.63
71.41	146.79
88.5	166.32
99.79	190.73
104.37	211.79
104.98	224
105.29	227.97
107.42	229.19
112.92	232.85
121.15	240.17
130.31	246.89
137.02	246.28
136.41	234.68
124.82	215.45
102.23	194.09
72.94	172.73
43.95	149.23
23.5	119.63
15.26	84.84
17.4	51.57
24.11	29.6
29.91	24.11
31.43	33.87
30.21	51.88
29.6	71.41
34.79	87.28
49.74	97.35
75.99	98.88
113.53	91.25
159.61	75.07
207.82	57.07
248.11	48.83
273.44	54.02
286.56	57.37
302.73	30.82
341.19	-41.5
408.63	-142.21
481.87	-219.12
515.44	-218.81
468.75	-132.75
336.91	-6.71
154.11	89.11
-21.97	109.25
-144.35	57.07
-200.2	-25.63
-209.35	-95.21
-204.47	-134.58
-209.35	-154.11
-230.71	-171.51
-257.57	-193.48
-270.69	-209.96
-255.43	-202.33
-211.79	-161.74
-151.67	-97.35
-93.69	-31.43
-52.19	15.56
-30.52	36.01
-21.97	36.01
-15.56	28.69
-6.41	24.72
3.97	27.77
10.99	36.01
12.51	45.17
9.46	50.66
4.88	52.19
1.83	51.88
0	52.8
-1.22	55.24
-1.83	58.29
-1.22	61.04
0.31	62.87
1.83	65.31
2.75	68.36
2.44	71.11
1.53	72.94
0	73.55
-1.83	73.24
-3.97	72.94
-6.71	72.94
-9.46	73.24
-12.51	73.24
-15.26	72.63
-17.7	71.72
-20.45	71.72
-23.8	74.16
-28.38	79.04
-33.57	85.14
-38.76	89.42
-43.64	90.64
-47.91	88.81
-52.8	86.06
-59.2	83.92
-68.05	83.31
-79.65	83.92
-92.47	86.06
-103.76	89.42
-111.39	95.52
-114.75	103.76
-115.97	113.22
-117.8	121.77
-120.24	127.87
-122.68	131.23
-122.99	131.84
-121.46	131.53
-118.71	131.53
-115.97	133.06
-111.08	137.33
-101.62	144.96
-85.14	155.64
-63.78	166.63
-41.81	175.17
-23.5	179.14
-9.46	176.7
2.44	168.46
14.34	157.78
26.25	146.48
37.54	137.02
46.69	129.7
53.1	123.9
57.07	117.8
57.98	110.78
56.46	102.84
54.93	96.13
54.63	91.86
54.93	89.72
54.63	87.59
52.19	82.4
48.22	73.85
45.17	65
43.95	59.51
43.03	59.81
42.72	64.39
43.95	70.19
46.69	73.24
50.35	72.02
52.49	66.83
50.35	60.12
43.95	53.71
35.1	49.74
27.16	48.83
21.97	50.66
18.92	53.71
14.65	55.85
2.75	53.1
-21.36	42.11
-58.9	22.89
-4.58	-47.61
-9.16	-50.66
-14.65	-53.1
-19.84	-53.41
-23.19	-52.19
-24.11	-50.05
-22.58	-48.52
-21.06	-48.52
-21.36	-49.44
-22.58	-49.44
-23.8	-47.3
-24.11	-44.56
-24.41	-45.17
-27.47	-52.49
-34.79	-64.7
-43.64	-76.29
-49.13	-80.87
-50.35	-75.38
-49.74	-64.09
-52.49	-55.85
-62.56	-57.37
-78.13	-68.97
-94.6	-84.84
-107.12	-97.96
-114.75	-103.76
-117.8	-102.23
-118.71	-97.66
-120.85	-94.91
-126.65	-96.74
-136.72	-99.49
-148.62	-96.13
-156.25	-80.26
-156.56	-54.32
-148.62	-27.77
-137.02	-10.68
-125.73	-5.8
-115.66	-5.49
-104.06	0.92
-88.2	15.56
-67.75	32.35
-45.17	40.89
-24.41	38.15
-7.02	30.21
7.63	27.16
19.53	35.1
28.69	51.57
35.1	68.36
40.28	79.96
44.86	83.62
48.83	80.26
50.66	71.41
47.91	57.37
41.5	40.89
36.01	27.47
34.79	21.36
37.54	23.19
39.98	29.3
38.76	34.48
34.18	36.62
30.82	36.62
32.04	37.23
36.32	39.06
39.37	41.81
39.98	44.56
38.15	44.25
35.71	39.06
33.26	29.91
31.74	21.97
30.82	19.84
31.13	25.63
33.26	34.48
33.57	39.98
29.91	37.23
22.28	27.77
14.04	17.4
10.68	11.6
14.34	11.29
21.06	15.26
25.33	20.75
24.41	24.41
19.23	25.02
13.43	22.89
10.07	20.14
9.16	17.09
8.85	14.34
9.16	10.68
10.68	5.49
12.51	-1.22
13.73	-7.02
13.12	-9.46
11.9	-7.63
11.9	-2.75
13.73	2.75
15.56	6.41
14.65	8.54
10.07	10.07
4.27	12.21
1.53	14.34
4.27	15.26
11.9	14.95
18.92	15.26
21.97	19.53
20.14	28.99
17.4	42.11
18.62	55.85
25.33	67.14
34.48	75.99
41.81	83.62
44.56	92.77
44.56	104.68
46.08	119.93
52.19	137.63
62.87	156.86
76.29	174.87
90.03	187.99
101.01	194.4
107.73	193.48
109.86	187.07
108.95	180.97
106.81	178.83
104.06	180.05
99.18	180.66
88.5	173.34
69.89	153.81
45.78	121.77
21.67	81.18
3.66	40.28
-5.8	5.19
-8.85	-19.84
-9.46	-32.35
-10.68	-32.96
-12.82	-26.86
-13.43	-19.84
-11.9	-16.78
-9.46	-19.23
-6.1	-24.11
-2.14	-26.86
2.75	-23.8
7.02	-16.48
3.97	-6.1
-11.6	6.1
-38.45	19.84
-60.12	33.26
-47.91	43.64
22.58	50.96
152.89	63.78
309.45	101.93
434.88	181.88
480.35	298.16
432.43	420.53
320.13	504.46
194.09	516.05(R)
97.05	452.58
44.56	343.63
28.08	232.85
29.6	155.03
33.57	120.54
28.69	112
7.93	99.79
-30.52	59.51
-79.04	-12.21
-119.32	-92.77
-133.06	-148.62
-114.75	-159
-76.6	-128.78
-41.2	-84.23
-23.5	-54.32
-23.8	-50.66
-30.21	-66.22
-32.65	-84.53
-29.6	-93.69
-25.33	-92.16
-22.28	-83.62
-20.14	-73.55
-17.7	-64.39
-16.17	-57.37
-17.7	-52.8
-22.28	-50.35
-27.47	-50.35
-29.6	-53.71
-28.08	-61.65
-24.11	-72.63
-20.45	-84.23
-18.01	-91.86
-17.7	-92.77
-18.92	-86.06
-22.89	-75.07
-27.77	-62.87
-30.82	-52.8
-31.13	-47.91
-28.99	-48.52
-26.86	-53.1
-27.16	-59.2
-30.21	-64.39
-35.71	-69.27
-42.42	-74.16
-49.44	-79.35
-55.24	-83.92
-58.59	-86.06
-60.42	-86.06
-62.26	-84.53
-65	-82.09
-68.36	-78.13
-72.63	-73.85
-77.82	-72.63
-85.45	-77.21
-96.13	-88.5
-108.03	-101.93
-117.49	-112.3
-123.6	-115.66
-129.09	-112.61
-136.41	-107.42
-145.87	-104.06
-155.33	-102.84
-161.74	-101.01
-163.27	-93.38
-162.05	-77.51
-159	-54.93
-154.11	-31.43
-144.35	-13.43
-128.48	-4.27
-107.42	-2.75
-86.67	-3.66
-70.5	-2.14
-57.68	5.19
-43.95	17.09
-25.02	31.43
-0.61	44.86
21.97	55.54
36.62	61.65
41.5	64.39
40.89	64.39
40.59	62.56
42.72	58.29
44.86	49.74
43.33	36.32
37.54	20.14
30.52	6.41
27.47	0.61
29.6	4.27
33.87	14.95
36.32	27.77
35.4	37.54
32.04	41.5
29.3	40.28
29.3	35.71
30.21	31.13
31.43	29.3
32.65	30.52
33.87	31.43
34.79	28.99
34.18	22.58
29.91	15.56
23.19	11.29
16.78	9.77
12.51	7.63
10.99	1.53
12.82	-7.63
16.78	-13.43
22.89	-11.29
28.08	-0.61
29.6	12.51
25.94	21.97
18.31	24.72
11.29	21.36
8.85	15.26
10.38	7.32
12.21	-0.31
13.12	-6.1
13.73	-7.93
15.56	-4.88
18.01	0
18.92	3.36
14.65	3.97
6.71	3.97
0	5.49
-2.14	9.16
0.31	13.12
5.8	15.87
12.21	17.7
17.4	18.92
19.84	18.31
18.92	14.04
13.43	6.71
5.49	-1.22
0	-5.49
0.31	-4.88
6.41	-1.22
14.34	2.44
18.92	4.58
17.7	5.19
12.82	5.8
8.24	6.1
5.8	5.19
6.41	3.97
9.77	5.49
14.34	14.04
20.45	31.74
27.16	56.76
33.26	81.48
37.84	97.35
42.11	100.71
46.08	96.44
50.05	94.91
54.02	104.37
58.59	125.73
65.31	151.37
74.46	170.29
85.45	176.09
96.44	172.73
107.42	170.29
118.1	176.09
126.95	188.6
130.31	197.75
123.9	193.48
106.81	173.95
82.4	145.57
57.98	117.19
38.15	92.77
22.28	69.89
9.46	46.08
-1.22	21.36
-7.93	0
-11.29	-14.04
-12.21	-22.28
-13.12	-27.47
-14.95	-31.74
-14.95	-32.96
-10.99	-29.6
-3.05	-21.36
5.49	-11.9
10.07	-5.49
7.32	-3.97
-4.27	-4.58
-25.63	-2.44
-53.71	5.49
-74.16	16.17
-61.95	24.72
8.24	28.99
141.91	37.84
308.23	71.41
447.08	148.62
501.71	267.03
451.36	395.2
325.32	486.76
182.8	504.76(R)
76.29	444.03
27.77	334.17
24.72	219.42
41.2	137.33
52.8	102.23
45.78	100.1
15.56	100.71
-34.48	75.99
-91.25	16.48
-135.5	-61.04
-151.37	-123.9
-134.58	-147.09
-96.13	-130
-57.07	-94.6
-32.65	-66.22
-24.41	-56.76
-24.41	-60.42
-23.8	-65.31
-21.36	-65.31
-19.84	-64.09
-22.58	-67.14
-27.16	-75.68
-28.08	-83.92
-22.89	-86.98
-14.95	-83.01
-8.85	-73.85
-7.63	-63.78
-11.29	-57.07
-17.4	-54.63
-24.11	-56.46
-29.3	-60.73
-32.96	-66.22
-34.18	-72.02
-32.96	-75.38
-30.52	-75.07
-27.47	-70.8
-24.41	-64.7
-23.5	-61.04
-26.25	-63.17
-32.96	-71.41
-40.59	-80.57
-45.47	-85.75
-45.17	-83.92
-42.11	-76.9
-40.89	-69.89
-44.86	-67.75
-53.71	-71.41
-62.26	-79.04
-66.22	-86.06
-65.61	-89.42
-64.7	-88.2
-68.05	-84.84
-77.51	-83.31
-90.94	-86.36
-104.98	-93.08
-118.1	-101.62
-129.39	-108.95
-139.77	-113.53
-148.93	-115.66
-155.03	-114.14
-157.78	-108.34
-158.69	-97.96
-160.22	-83.62
-163.88	-68.36
-169.98	-55.54
-175.17	-47.61
-175.48	-45.17
-168.76	-45.78
-155.33	-44.25
-137.33	-36.93
-115.97	-22.28
-93.08	-3.05
-69.27	16.17
-45.17	30.82
-23.19	39.37
-4.58	41.81
11.29	40.59
23.8	39.06
32.04	37.84
36.32	37.23
37.84	36.93
39.37	37.84
43.03	40.59
48.22	44.86
49.44	46.08
43.03	40.89
31.13	28.38
20.45	14.65
18.01	6.71
25.02	10.68
36.62	24.72
45.47	39.98
47.61	47.91
44.56	43.33
39.06	29.3
33.57	13.12
28.69	1.83
25.63	-1.53
25.94	1.83
29.91	8.24
34.48	13.73
36.62	17.09
34.18	17.7
28.08	15.87
21.97	11.29
17.7	4.27
15.56	-3.36
14.65	-9.16
15.26	-9.16
18.01	-3.05
22.58	6.1
26.55	12.21
27.16	10.68
23.5	0.92
16.17	-12.21
8.85	-23.5
3.97	-29.6
2.75	-29.91
5.19	-25.33
9.16	-17.4
12.51	-7.93
12.21	1.22
7.63	6.1
1.22	3.97
-2.75	-3.97
-1.22	-12.51
6.41	-14.95
14.65	-8.54
18.62	2.44
16.17	9.16
10.07	5.8
5.49	-6.41
5.49	-20.45
9.46	-27.77
14.34	-24.72
17.4	-14.95
17.09	-5.8
14.95	0
12.51	3.66
11.29	11.6
14.04	27.77
21.67	50.35
32.96	70.5
43.33	81.18
48.83	82.09
48.83	80.57
46.08	86.36
46.39	104.68
54.02	133.06
67.75	164.18
83.01	187.38
95.83	196.84
103.76	191.65
107.42	176.7
108.95	160.52
110.78	149.84
111.69	144.35
108.03	138.85
95.83	128.48
74.46	113.53
47.3	96.13
20.45	75.99
0.61	50.35
-10.68	17.7
-14.34	-17.7
-14.34	-46.08
-14.04	-59.51
-14.65	-57.68
-16.17	-48.22
-17.09	-38.15
-15.87	-32.04
-11.6	-28.38
-5.19	-25.02
1.83	-20.75
5.49	-16.48
2.14	-13.12
-13.12	-9.77
-39.98	-3.66
-66.53	3.97
-68.36	10.07
-16.48	14.95
103.45	26.86
269.47	62.87
424.5	139.77
503.85	255.74
474.85	383.3
358.89	480.35
215.76	510.86(R)
104.98	465.7
51.27	366.21
40.59	252.69
42.72	162.05
38.15	112.61
21.67	98.57
-4.27	95.52
-37.54	75.38
-77.21	24.41
-117.19	-49.74
-142.82	-120.24
-140.38	-159.61
-109.56	-157.78
-65.92	-127.87
-30.52	-94.3
-15.87	-76.29
-20.14	-76.9
-31.13	-86.98
-37.84	-93.99
-36.62	-93.69
-31.13	-87.89
-25.02	-81.18
-20.45	-77.21
-17.4	-75.99
-17.09	-77.21
-18.92	-78.74
-21.97	-80.57
-24.11	-81.79
-24.41	-81.18
-22.89	-78.13
-21.36	-74.16
-20.75	-72.02
-21.97	-73.55
-26.25	-79.65
-32.96	-86.67
-39.06	-89.72
-40.89	-86.36
-36.62	-78.13
-28.08	-68.97
-21.36	-62.26
-20.45	-60.73
-25.63	-63.78
-34.18	-70.5
-41.5	-77.51
-46.69	-83.31
-50.66	-87.28
-54.02	-90.64
-55.54	-93.99
-55.24	-97.05
-54.93	-97.66
-58.9	-97.05
-68.66	-98.57
-83.01	-105.29
-96.44	-114.75
-104.37	-120.24
-107.73	-115.97
-109.25	-104.98
-113.22	-96.44
-121.46	-100.1
-133.06	-115.05
-144.96	-130.62
-154.11	-133.06
-159.91	-116.27
-163.27	-86.98
-166.63	-60.42
-170.59	-48.83
-172.12	-53.41
-166.63	-64.09
-152.59	-68.97
-132.75	-59.81
-111.69	-37.54
-91.86	-9.46
-73.55	16.17
-55.24	33.87
-36.62	41.5
-19.53	39.98
-4.27	33.57
9.77	25.94
21.97	21.06
30.82	20.45
34.48	23.19
33.57	26.55
30.21	28.69
26.55	28.08
23.8	23.19
22.58	15.26
23.8	8.24
27.77	6.41
33.57	11.6
38.15	19.53
37.84	22.58
32.65	16.17
25.33	1.83
20.14	-11.29
19.84	-14.65
23.8	-6.71
28.38	7.63
29.91	21.36
26.25	27.47
19.53	21.97
13.12	6.41
10.99	-14.04
12.51	-30.52
15.56	-35.4
17.09	-27.47
16.17	-13.73
14.04	-3.05
11.29	-0.92
9.46	-5.8
9.16	-11.29
10.38	-13.12
13.73	-8.85
17.09	-1.83
18.31	2.44
15.87	-0.31
9.77	-11.6
2.75	-28.69
-2.75	-43.95
-3.66	-51.57
0	-48.22
5.8	-35.71
11.29	-18.92
14.04	-4.58
12.51	3.05
7.93	2.14
1.83	-5.19
-3.66	-14.65
-6.71	-21.06
-5.49	-21.97
-0.31	-17.09
6.71	-9.46
11.29	-2.75
10.38	0.61
5.49	0.92
1.83	0.61
3.66	3.05
11.29	8.85
20.14	18.92
25.02	30.82
24.41	42.42
22.28	51.88
23.8	59.2
31.43	68.97
42.72	86.67
53.41	114.14
60.42	144.96
62.56	166.02
62.87	167.85
65.31	153.2
71.11	137.33
81.18	134.28
93.69	148.93
104.68	170.29
109.86	181.58
106.81	172.73
95.21	146.18
76.6	113.53
54.02	84.53
30.21	62.56
7.93	42.72
-9.77	21.06
-20.14	-2.44
-21.97	-22.58
-18.62	-35.1
-13.73	-39.67
-11.29	-39.98
-11.9	-39.98
-14.65	-42.11
-16.78	-46.08
-16.48	-49.13
-14.34	-49.74
-11.29	-47.3
-11.9	-42.42
-21.97	-35.1
-43.95	-25.02
-67.44	-14.04
-69.27	-3.36
-21.36	7.63
89.72	25.63
244.45	64.39
391.54	139.16
473.33	249.33
458.37	372.62
360.72	471.5
229.49	511.17(R)
118.1	476.68
55.54	383.61
38.45	267.64
42.72	166.32
45.47	104.37
35.1	80.87
9.46	72.63
-29.3	50.35
-75.68	-2.14
-118.41	-75.38
-143.13	-139.16
-140.08	-165.41
-110.47	-148.62
-70.19	-109.25
-39.37	-75.99
-27.47	-66.83
-30.52	-78.74
-36.93	-96.74
-37.23	-107.12
-31.43	-106.2
-24.72	-98.57
-22.28	-90.94
-24.41	-86.06
-27.47	-82.7
-28.38	-79.04
-28.08	-75.38
-28.08	-73.85
-28.99	-75.07
-28.99	-76.6
-25.94	-73.85
-19.84	-67.75
-14.65	-63.48
-14.04	-66.83
-18.62	-78.43
-25.63	-91.86
-30.52	-97.96
-30.82	-93.69
-28.38	-84.23
-27.16	-77.82
-28.69	-77.51
-32.96	-80.26
-37.54	-81.48
-40.59	-78.13
-41.81	-72.94
-42.72	-70.19
-45.17	-72.94
-49.44	-82.09
-54.63	-94.6
-59.51	-105.9
-64.09	-112.92
-69.27	-114.14
-77.51	-112
-88.5	-111.39
-99.79	-114.75
-108.95	-121.46
-114.75	-127.56
-119.32	-130.62
-125.12	-130
-132.75	-126.65
-140.99	-121.15
-148.01	-113.83
-153.2	-104.98
-157.78	-96.74
-162.96	-91.25
-167.24	-85.75
-166.93	-76.9
-160.22	-61.65
-148.32	-43.03
-134.58	-28.08
-122.68	-21.67
-113.22	-23.19
-103.15	-25.63
-88.81	-22.28
-69.27	-11.29
-45.78	3.05
-21.97	15.87
-1.22	23.8
15.26	27.47
27.77	29.6
36.62	31.74
41.2	33.26
41.5	32.65
39.37	29.6
35.71	23.5
33.26	16.78
32.35	11.6
32.65	10.07
33.26	12.51
33.87	17.7
33.57	22.28
31.74	23.19
28.08	19.53
25.33	12.82
25.94	6.1
28.99	1.53
32.04	-0.31
32.04	0.31
28.69	1.53
24.41	2.14
23.19	1.53
23.5	-0.92
22.89	-4.27
19.53	-7.93
15.26	-10.68
12.51	-13.12
12.82	-15.56
15.26	-18.62
17.4	-20.75
18.01	-19.53
18.01	-15.26
18.31	-8.85
19.23	-5.19
19.53	-7.02
18.92	-12.51
17.4	-18.01
14.95	-19.53
11.9	-17.4
9.16	-14.95
7.32	-15.87
6.41	-19.84
5.8	-23.8
4.27	-25.02
1.22	-23.19
-1.53	-20.45
-1.83	-19.53
2.14	-19.84
8.85	-20.75
15.87	-20.75
19.84	-19.84
18.31	-17.7
12.82	-14.04
7.63	-7.63
6.41	0.61
10.07	8.85
16.48	15.26
20.75	19.53
21.97	24.72
22.28	33.87
26.25	48.83
35.4	68.36
47.61	89.42
59.81	108.95
69.27	125.43
76.29	140.08
83.01	152.28
90.94	161.74
99.79	167.85
108.34	170.59
114.14	171.51
115.36	170.9
111.39	166.32
103.15	154.42
90.33	134.28
72.94	107.73
51.27	79.35
25.63	50.66
-0.31	22.89
-18.92	-2.75
-25.33	-23.8
-20.75	-37.84
-10.68	-44.56
-3.36	-48.52
-3.05	-53.71
-7.93	-61.95
-14.04	-69.27
-17.09	-69.89
-16.17	-61.65
-12.21	-47.91
-9.16	-35.71
-11.6	-28.38
-24.41	-23.5
-47	-13.73
-68.36	0.92
-65.61	13.43
-13.73	16.17
99.49	13.43
254.52	27.47
400.7	86.36
480.65	198.06
464.17	336.3
364.69	450.74
230.71	494.08(R)
114.75	451.97
45.47	349.12
20.75	232.24
22.89	143.13
32.35	101.62
35.71	96.44
21.97	98.27
-13.43	76.6
-65.31	17.7
-116.88	-65.92
-146.79	-143.13
-144.04	-184.63
-114.14	-181.88
-76.29	-149.84
-47.3	-111.69
-33.26	-85.45
-27.77	-74.16
-23.5	-72.63
-18.62	-75.38
-16.78	-79.65
-19.84	-85.14
-26.86	-90.03
-32.96	-93.38
-35.1	-96.13
-34.18	-98.88
-32.96	-101.01
-32.04	-98.88
-30.52	-91.25
-27.47	-81.48
-24.11	-75.68
-21.97	-77.82
-22.89	-85.75
-25.63	-91.86
-28.08	-90.33
-29.6	-81.18
-30.21	-70.19
-30.52	-64.39
-30.82	-66.83
-31.43	-74.77
-33.26	-81.79
-36.01	-83.01
-39.37	-78.13
-40.89	-72.63
-40.59	-73.55
-39.98	-84.53
-41.2	-101.01
-46.39	-112.61
-54.63	-112.3
-63.48	-101.62
-70.5	-89.42
-75.07	-84.53
-77.21	-88.81
-79.04	-97.66
-84.23	-105.9
-94.6	-111.39
-110.47	-115.05
-127.87	-119.63
-142.52	-124.51
-150.76	-126.34
-153.2	-122.07
-153.81	-111.69
-156.25	-98.27
-162.05	-87.28
-169.07	-81.79
-173.34	-79.96
-171.2	-75.68
-163.27	-65
-152.59	-48.22
-142.52	-31.43
-133.97	-19.23
-122.99	-12.82
-104.98	-8.54
-78.43	-1.22
-47.3	10.38
-19.53	23.5
-1.53	33.87
7.32	39.06
12.21	39.06
18.31	35.4
26.55	30.21
34.18	25.94
38.45	22.28
39.67	19.84
39.67	18.31
39.98	16.48
39.98	15.26
39.67	15.56
39.06	16.78
39.06	17.09
38.76	15.56
37.23	12.21
33.87	9.46
30.52	8.85
28.38	10.99
27.16	13.12
26.25	13.12
25.02	11.29
24.41	8.85
26.55	5.19
30.52	0
34.18	-5.49
35.1	-9.16
32.96	-8.85
28.08	-5.49
22.89	-2.75
18.31	-3.66
15.26	-8.85
14.34	-13.73
15.87	-14.65
19.23	-10.07
21.97	-3.97
22.58	-0.31
21.06	-0.61
18.62	-3.66
17.4	-6.1
17.4	-7.02
17.09	-8.24
14.34	-13.73
9.77	-23.19
5.49	-31.13
4.27	-32.04
5.49	-24.41
6.41	-12.82
5.19	-4.27
2.44	-1.83
1.53	-4.27
5.49	-7.63
11.9	-9.16
17.09	-10.68
18.62	-12.51
17.09	-14.95
14.95	-16.17
13.12	-14.34
10.99	-8.85
8.85	-1.22
9.16	6.41
14.04	12.82
23.5	18.92
32.04	26.25
34.48	34.79
30.21	42.72
24.41	48.52
23.8	54.93
31.13	67.14
42.42	88.81
54.93	117.49
66.22	144.04
78.43	162.35
91.86	171.81
103.76	176.39
110.78	180.05
112.3	182.5
111.39	182.19
111.39	178.53
112	171.81
108.34	162.35
95.83	148.01
73.85	126.04
47.61	96.44
23.5	61.34
6.1	25.02
-4.88	-8.24
-11.6	-33.87
-15.56	-47.91
-16.78	-49.44
-14.34	-42.42
-9.46	-33.87
-5.49	-30.21
-4.27	-32.96
-6.71	-39.37
-9.46	-43.95
-9.46	-44.56
-7.93	-41.5
-11.29	-36.01
-25.63	-25.33
-50.35	-7.02
-68.66	15.56
-52.8	34.18
23.5	43.64
163.88	52.49
332.03	84.53
466.61	160.83
513	277.71
455.93	401
328.98	482.48
191.65	489.50(R)
92.77	424.19
47	320.43
37.84	219.42
40.28	150.76
36.62	119.32
19.23	108.03
-12.21	91.55
-56.46	50.96
-105.59	-15.26
-144.35	-88.81
-156.56	-142.52
-135.19	-160.22
-91.55	-144.96
-46.39	-114.14
-18.31	-87.28
-12.21	-74.46
-19.53	-74.77
-27.77	-81.48
-29.3	-87.28
-25.02	-87.89
-19.84	-84.23
-17.09	-78.74
-17.7	-75.38
-18.92	-76.6
-18.31	-80.26
-16.48	-83.31
-15.87	-83.62
-18.31	-82.4
-22.58	-79.96
-26.25	-76.9
-26.86	-72.94
-25.63	-70.19
-25.02	-71.11
-25.63	-76.29
-27.16	-83.31
-28.69	-87.28
-30.52	-86.67
-33.26	-83.01
-35.71	-78.13
-36.62	-74.16
-36.01	-71.11
-35.4	-69.27
-36.01	-71.11
-36.93	-76.29
-36.62	-84.23
-35.1	-91.25
-35.1	-95.21
-39.67	-94.3
-48.52	-90.03
-60.42	-85.45
-70.5	-82.7
-76.9	-84.53
-80.57	-92.77
-84.53	-106.2
-91.55	-120.85
-102.84	-131.53
-117.19	-135.19
-130.92	-131.23
-141.3	-120.24
-148.32	-104.98
-152.59	-90.33
-155.33	-79.65
-158.08	-75.07
-160.83	-76.6
-163.57	-81.18
-166.32	-83.62
-167.85	-81.18
-164.79	-72.33
-153.2	-55.85
-132.14	-34.18
-105.29	-12.51
-79.04	3.05
-56.76	12.82
-38.45	19.23
-21.36	26.25
-5.49	33.87
7.93	40.28
16.17	40.89
19.23	36.01
20.75	29.91
24.41	26.55
30.82	27.16
38.45	31.74
43.33	36.62
41.81	36.32
35.4	29.3
27.77	18.31
23.8	10.38
25.33	9.77
30.52	15.26
33.26	20.45
29.91	18.92
23.19	11.9
18.92	6.1
21.36	7.63
29.3	16.48
37.23	26.25
39.06	28.38
33.26	20.14
24.72	5.49
18.92	-7.93
18.62	-12.82
21.97	-7.63
25.94	4.88
27.77	17.7
25.94	24.11
20.45	22.28
13.73	12.21
9.46	-2.44
10.07	-15.26
14.95	-21.97
20.45	-21.36
23.19	-14.95
20.45	-6.71
13.43	-0.61
6.1	1.53
0.92	1.22
0.61	-0.31
5.19	-2.75
12.82	-5.8
18.92	-7.93
20.14	-8.24
14.95	-7.63
8.54	-7.32
6.1	-7.63
9.77	-7.32
15.56	-3.66
18.01	4.27
14.34	11.6
7.02	12.51
1.83	6.41
2.14	-1.53
7.02	-4.58
12.82	0.61
16.48	11.29
18.62	25.02
21.67	40.89
25.94	57.98
30.82	74.46
35.1	87.89
37.84	97.66
40.89	108.03
46.08	124.21
54.63	145.87
65.61	165.41
76.29	174.87
85.14	172.73
90.94	165.71
94.3	162.66
98.27	167.54
102.84	174.26
104.98	172.73
100.1	159
85.75	137.02
63.17	114.14
39.06	93.38
19.84	70.8
6.1	41.81
-3.36	8.85
-11.6	-17.7
-19.53	-30.21
-24.41	-29.3
-25.33	-23.8
-22.58	-24.41
-18.01	-32.96
-13.43	-41.81
-10.07	-43.33
-9.16	-36.01
-10.38	-27.47
-14.95	-24.11
-24.41	-23.5
-40.28	-17.4
-60.12	-0.61
-69.27	21.67
-42.72	37.84
40.89	44.25
180.97	54.93
339.36	97.05
455.93	187.38
482.18	314.64
412.29	440.06
284.42	516.97(R)
157.17	516.66
72.33	444.03
37.23	332.64
34.48	224.61
40.28	150.45
37.54	115.97
18.92	103.15
-16.17	85.75
-63.17	42.72
-110.47	-26.86
-141.3	-103.15
-143.74	-157.47
-118.41	-171.81
-79.04	-149.54
-45.47	-112.92
-31.43	-86.67
-35.4	-83.01
-46.69	-96.44
-52.8	-111.69
-49.13	-116.58
-39.06	-108.34
-28.08	-89.72
-20.14	-68.05
-17.09	-53.1
-18.01	-50.96
-23.5	-63.48
-30.82	-82.7
-36.01	-95.83
-35.71	-93.69
-31.43	-78.43
-27.47	-60.42
-28.38	-50.66
-33.87	-53.1
-39.37	-63.48
-40.28	-75.38
-36.62	-85.14
-32.96	-91.55
-32.65	-93.38
-36.32	-91.25
-39.67	-85.45
-40.89	-78.13
-40.59	-71.41
-41.5	-67.44
-45.17	-66.53
-49.74	-68.97
-52.19	-74.46
-51.27	-80.87
-49.74	-86.36
-51.88	-91.25
-60.42	-96.44
-73.85	-102.54
-87.28	-109.86
-96.74	-115.05
-100.4	-115.36
-100.71	-110.17
-102.54	-102.23
-108.34	-95.52
-118.41	-93.99
-130.92	-99.18
-143.43	-108.64
-153.5	-116.88
-160.83	-118.71
-164.49	-112.3
-164.79	-100.4
-163.88	-88.5
-163.27	-79.96
-164.18	-74.16
-164.79	-67.14
-161.44	-55.85
-151.06	-40.89
-134.58	-24.72
-114.75	-10.07
-93.69	1.53
-71.72	11.6
-47	21.36
-19.84	32.04
4.88	42.11
20.14	49.74
24.11	53.71
20.14	54.02
15.56	50.96
16.17	44.56
21.36	34.79
25.02	22.89
23.19	12.21
18.31	6.1
15.56	7.63
18.92	14.65
27.77	24.41
36.62	32.65
39.67	36.93
35.71	37.23
27.16	33.26
18.62	25.94
14.95	16.78
16.78	9.16
21.67	4.27
25.02	2.44
22.89	2.14
16.17	2.44
9.16	2.75
5.8	3.05
7.32	4.58
11.6	7.02
16.48	9.46
19.84	10.68
20.75	9.77
18.31	6.41
12.51	1.22
6.1	-3.05
2.14	-4.27
1.83	-2.44
4.58	-0.92
6.41	-2.75
5.19	-8.85
1.83	-15.26
-0.92	-15.87
-0.61	-7.63
2.14	7.93
7.32	22.89
12.21	29.91
14.95	25.63
14.34	11.9
10.38	-4.58
3.66	-16.17
-2.44	-19.23
-4.88	-14.65
-3.66	-6.71
-1.22	-0.92
0.92	0.61
0.61	-1.53
-0.92	-4.88
-0.61	-6.71
2.75	-5.8
10.07	-1.53
18.01	6.41
23.5	17.4
23.5	30.21
19.53	44.86
15.26	58.9
14.65	71.72
19.84	83.01
28.69	93.08
38.76	104.37
48.83	119.93
57.98	139.47
66.83	159
74.46	171.51
81.18	173.03
86.36	166.63
90.94	159.3
95.21	159.3
99.49	167.24
101.01	175.78
97.96	175.78
87.89	162.66
70.8	138.85
48.22	111.08
23.5	81.79
0.31	51.27
-15.56	18.62
-21.97	-11.6
-19.84	-32.96
-14.34	-40.28
-10.99	-35.4
-11.6	-26.86
-13.12	-21.97
-13.43	-22.58
-12.51	-26.55
-11.9	-30.52
-11.9	-33.26
-13.43	-35.4
-18.01	-37.23
-30.21	-34.48
-50.66	-22.28
-69.89	-2.14
-63.78	20.14
-7.02	37.84
110.47	53.1
265.81	81.48
407.1	146.18
479.13	253.6
453.8	382.69
348.51	488.89
213.93	527.65(R)
104.37	481.57
46.69	371.09
33.26	242.61
39.06	141.91
42.42	92.47
33.57	86.06
10.68	90.33
-25.33	71.72
-71.11	15.26
-116.27	-65.31
-143.74	-135.5
-140.08	-166.63
-108.03	-154.72
-65.92	-120.24
-34.79	-89.42
-24.41	-75.99
-28.99	-75.99
-35.1	-78.13
-35.1	-75.07
-29.91	-67.75
-26.55	-61.04
-27.47	-58.59
-30.82	-61.34
-32.04	-68.66
-29.91	-77.82
-26.55	-85.14
-25.02	-86.98
-25.63	-83.92
-26.86	-79.96
-27.16	-78.43
-27.77	-80.26
-29.91	-81.79
-32.96	-78.13
-34.79	-68.97
-34.48	-58.59
-32.65	-53.41
-31.43	-56.76
-32.04	-66.83
-33.87	-77.82
-36.32	-84.23
-39.06	-84.53
-42.72	-81.18
-47.3	-77.51
-51.57	-75.68
-54.63	-75.99
-56.15	-78.13
-56.76	-80.87
-57.98	-84.53
-59.51	-90.03
-61.65	-95.52
-65	-99.49
-71.41	-100.1
-82.09	-99.18
-96.74	-100.1
-112.3	-105.29
-124.82	-113.83
-133.36	-122.68
-139.47	-126.95
-146.48	-125.12
-155.64	-119.02
-166.32	-112.61
-176.09	-108.03
-182.5	-104.37
-184.63	-98.88
-182.5	-89.72
-177.31	-76.6
-169.68	-61.65
-160.52	-48.22
-149.54	-36.62
-136.41	-26.25
-119.93	-14.65
-99.79	-0.61
-77.51	14.34
-53.71	28.69
-29.6	39.67
-8.54	46.08
6.71	48.52
16.48	47.3
22.58	43.95
28.38	39.98
34.79	37.23
40.28	36.62
43.03	38.15
42.11	39.06
39.37	38.15
36.32	34.48
34.18	29.91
32.65	26.25
32.35	23.19
32.04	20.75
31.43	18.31
29.91	16.78
28.38	17.7
28.38	21.97
31.43	29.6
36.93	36.93
42.11	39.98
42.72	36.32
36.62	26.55
25.63	13.43
15.56	2.14
11.29	-4.27
15.26	-4.58
23.8	-0.31
31.74	5.49
34.79	10.38
32.96	12.21
28.38	11.9
23.8	11.29
20.75	12.21
19.23	14.95
19.53	18.62
20.75	21.36
22.28	20.45
23.19	14.65
22.58	4.88
20.14	-6.41
15.56	-15.56
9.16	-19.84
3.05	-18.31
1.22	-12.51
5.19	-5.8
13.12	-0.31
19.53	3.66
20.45	7.63
15.87	12.82
9.16	18.92
4.58	21.67
2.75	18.92
3.05	11.9
5.19	5.8
9.16	5.19
14.04	9.77
17.09	14.65
15.87	14.95
11.29	10.68
6.1	5.8
3.66	2.75
4.58	1.53
6.1	0
6.71	-1.83
6.71	-2.75
7.32	-1.53
9.77	0.61
12.82	2.14
14.65	3.05
15.56	3.97
16.17	6.1
16.78	8.85
16.78	11.6
16.78	14.95
16.78	20.75
17.4	29.91
19.53	42.72
22.28	56.76
25.33	69.58
28.69	79.04
32.04	86.67
36.32	96.44
42.42	113.22
51.88	137.94
65.92	164.49
82.7	184.33
98.27	190.73
108.64	185.24
112.61	176.39
114.44	172.73
117.8	176.09
121.15	180.66
119.32	177.92
107.42	163.27
84.84	139.16
56.46	112
30.52	86.98
10.99	63.78
-1.22	40.89
-7.02	17.7
-8.54	-3.66
-7.93	-19.84
-7.32	-29.3
-8.24	-33.26
-10.07	-33.26
-10.99	-30.21
-9.16	-26.25
-5.49	-22.89
-2.14	-21.36
-2.44	-21.97
-5.8	-22.89
-13.43	-21.06
-26.86	-12.51
-46.39	2.75
-61.65	21.06
-48.83	36.01
17.7	44.25
145.57	53.1
307.31	81.48
444.95	150.45
501.4	260.62
455.63	384.22
335.08	475.77
196.53	495.30(R)
90.64	435.49
38.15	326.84
28.08	215.76
35.1	140.38
39.06	110.17
28.99	105.9
0.61	96.44
-45.17	60.12
-99.18	-5.19
-143.43	-77.51
-158.69	-129.09
-138.85	-144.04
-95.83	-127.56
-52.19	-100.4
-27.77	-82.09
-25.63	-78.74
-34.48	-84.53
-40.28	-90.03
-38.15	-90.03
-30.82	-84.84
-24.11	-77.51
-21.06	-70.8
-19.53	-66.83
-17.09	-65.31
-14.95	-65.31
-15.56	-66.83
-20.45	-70.19
-27.77	-76.6
-34.79	-84.53
-38.45	-90.03
-36.93	-89.42
-32.04	-83.92
-26.86	-79.04
-24.41	-78.74
-26.25	-81.79
-30.82	-84.23
-35.71	-82.7
-38.76	-78.43
-39.37	-75.38
-39.98	-75.99
-41.5	-79.65
-43.64	-83.31
-45.47	-84.84
-47.61	-84.53
-49.74	-83.31
-53.71	-83.01
-58.59	-83.62
-62.26	-84.23
-64.7	-86.06
-67.14	-89.42
-71.41	-94.3
-79.04	-99.79
-88.81	-104.37
-99.18	-106.81
-107.73	-108.03
-115.66	-109.25
-124.51	-111.39
-135.19	-114.44
-146.79	-116.58
-157.78	-115.97
-166.63	-112.92
-173.95	-109.25
-180.36	-106.81
-185.85	-104.98
-189.21	-101.32
-188.9	-92.77
-184.94	-79.35
-178.53	-63.78
-169.68	-48.83
-157.78	-35.4
-139.47	-22.89
-114.44	-11.6
-88.2	-3.66
-66.22	1.22
-50.96	6.41
-38.76	16.48
-23.8	30.82
-4.88	43.03
13.73	46.39
25.63	39.37
28.38	27.47
25.63	17.09
23.19	11.6
24.72	10.38
28.99	12.51
34.18	18.31
38.15	26.25
40.59	32.04
40.59	30.21
37.54	20.45
32.35	7.93
26.25	-0.31
21.67	-0.92
20.75	2.14
23.5	4.58
26.86	5.49
27.47	7.63
25.02	11.6
21.06	15.26
18.92	14.34
20.45	7.93
23.19	-0.92
23.8	-7.32
21.06	-9.46
16.78	-8.85
14.65	-8.24
16.17	-7.63
20.45	-5.8
24.41	-1.22
25.02	4.58
21.67	7.32
14.95	3.05
7.02	-6.71
2.44	-15.56
3.66	-18.31
9.46	-15.26
15.56	-11.29
16.48	-10.68
11.6	-12.82
3.97	-13.12
-0.61	-9.77
0	-6.1
3.66	-8.54
6.1	-17.4
4.58	-27.77
0.92	-32.65
-1.53	-28.69
0	-18.31
4.58	-5.8
8.24	3.66
7.63	7.63
3.36	4.27
-0.92	-6.1
-2.14	-19.84
0	-30.82
3.36	-33.26
5.8	-25.02
7.63	-8.54
10.99	10.38
14.95	26.86
17.4	38.45
17.09	46.39
15.87	52.8
18.92	61.04
28.99	74.77
43.64	95.52
58.29	121.77
67.44	145.87
71.72	159.91
73.85	159
76.9	147.4
82.7	137.33
90.64	138.24
100.1	150.45
109.25	165.1
113.53	170.29
108.64	158.69
92.47	133.06
66.22	102.23
36.62	74.77
10.38	53.41
-6.71	34.79
-13.12	14.65
-10.07	-7.32
-2.44	-26.55
2.75	-37.54
0.31	-40.28
-10.38	-40.59
-23.19	-44.86
-31.43	-53.41
-31.13	-60.73
-23.8	-61.04
-15.26	-54.02
-10.07	-44.25
-11.29	-36.93
-19.53	-30.52
-35.71	-19.84
-55.54	-2.44
-64.09	16.17
-37.54	29.6
44.25	36.01
180.97	45.47
338.13	80.26
458.37	159
492.86	277.71
431.52	404.97
307.92	495
177.92	510.25(R)
86.36	446.17
43.64	332.03
32.96	214.54
31.13	132.75
23.8	97.66
6.41	90.33
-20.45	79.65
-56.15	39.06
-97.66	-34.48
-133.06	-117.49
-147.71	-175.17
-133.36	-184.94
-96.44	-150.76
-57.37	-99.79
-34.18	-63.48
-30.82	-57.07
-35.71	-74.16
-35.4	-95.21
-26.55	-105.9
-17.09	-101.32
-16.48	-87.89
-25.02	-74.16
-33.87	-66.53
-35.4	-66.53
-29.6	-72.33
-23.19	-79.96
-21.67	-85.45
-25.63	-86.36
-30.52	-83.62
-32.35	-79.65
-31.43	-77.21
-29.91	-79.04
-30.52	-84.23
-33.26	-90.33
-36.32	-93.08
-37.23	-89.11
-34.48	-77.82
-29.6	-62.87
-26.25	-51.27
-27.77	-49.13
-34.48	-60.42
-42.42	-81.48
-48.52	-102.54
-50.35	-114.44
-49.13	-112.92
-48.83	-103.15
-51.27	-95.21
-55.54	-94.6
-60.73	-98.88
-66.22	-102.54
-72.94	-103.15
-81.79	-103.76
-91.25	-109.25
-98.88	-119.02
-103.15	-125.43
-106.2	-122.38
-110.47	-110.78
-118.1	-98.88
-129.09	-95.21
-141.91	-101.01
-153.2	-112.3
-162.35	-121.77
-168.15	-124.21
-170.9	-119.32
-171.51	-109.86
-169.68	-97.05
-166.02	-81.48
-159.3	-62.56
-149.84	-42.11
-138.24	-24.72
-124.51	-14.04
-108.34	-8.24
-88.5	-3.36
-65	4.58
-40.89	14.04
-19.84	18.62
-4.27	16.78
6.1	12.21
13.12	11.6
17.4	16.48
20.14	23.5
22.58	26.86
26.55	26.25
34.18	25.63
43.33	27.47
48.52	28.99
44.86	27.16
33.57	21.97
19.53	16.48
9.77	12.51
7.63	7.93
10.07	0.61
11.9	-10.07
11.29	-18.92
10.07	-21.36
11.29	-17.09
14.95	-8.54
18.62	-0.92
19.53	2.75
16.17	0.61
10.99	-7.02
7.32	-15.26
8.24	-19.23
12.51	-14.95
18.31	-4.88
22.58	4.88
23.19	8.85
21.06	7.32
16.48	4.27
10.38	0.92
4.27	-5.19
-0.61	-18.31
-2.14	-37.23
-1.53	-53.1
-1.22	-55.54
-3.05	-40.59
-6.1	-14.65
-8.24	7.32
-6.1	13.73
-0.92	2.75
3.36	-17.7
3.97	-34.48
1.22	-38.15
-2.44	-28.38
-3.97	-11.9
-2.75	0.61
-0.92	0.92
-0.61	-10.68
-2.14	-26.55
-3.97	-35.71
-4.58	-32.65
-4.58	-20.45
-4.58	-9.46
-5.19	-8.54
-5.8	-16.48
-6.41	-25.63
-6.41	-26.86
-4.88	-16.78
-2.44	-1.22
0.61	10.68
3.05	12.51
3.66	3.66
2.75	-9.46
1.83	-18.62
2.14	-17.7
3.97	-6.41
5.8	11.9
6.41	31.13
7.63	48.22
12.21	64.7
20.75	81.48
30.52	97.66
37.84	109.86
41.5	117.49
42.72	121.46
47	126.04
57.37	135.5
72.02	150.45
86.67	165.71
95.83	175.48
98.27	176.7
94.6	167.85
86.36	151.06
75.38	130.31
60.73	108.95
41.81	89.11
19.23	70.5
-2.75	49.74
-19.23	24.72
-26.86	-4.27
-26.86	-30.82
-24.11	-47
-22.89	-49.44
-23.5	-42.42
-24.41	-32.96
-24.11	-27.16
-21.97	-26.55
-20.14	-27.77
-18.92	-30.52
-17.09	-36.01
-14.95	-46.08
-18.31	-57.07
-34.48	-58.9
-61.34	-43.33
-82.4	-10.99
-70.8	25.33
-2.14	53.1
125.73	71.41
280.76	101.01
408.02	167.85
459.9	278.63
419.92	406.49
314.03	503.54
190.43	527.95(R)
93.08	471.5
38.45	361.94
18.31	244.45
16.17	157.78
19.84	115.36
19.53	102.54
5.8	90.64
-28.38	52.49
-79.65	-18.01
-131.23	-101.32
-161.13	-165.41
-156.25	-188.29
-124.21	-172.42
-85.14	-140.38
-56.46	-114.44
-43.33	-104.68
-40.28	-105.59
-39.06	-105.9
-36.93	-100.1
-35.71	-90.33
-37.54	-82.4
-42.42	-80.57
-47.3	-84.84
-48.83	-91.86
-46.39	-97.96
-42.11	-100.71
-38.45	-100.4
-38.15	-97.96
-41.2	-93.99
-45.78	-88.5
-48.52	-82.7
-47.91	-79.04
-45.78	-80.26
-44.86	-86.98
-44.86	-95.21
-44.86	-101.01
-44.25	-101.32
-44.86	-95.52
-48.52	-86.67
-55.85	-77.51
-62.26	-71.72
-62.87	-70.19
-56.76	-74.16
-49.74	-83.01
-47	-95.21
-52.19	-106.2
-62.87	-112.3
-74.77	-113.22
-83.31	-111.08
-87.59	-109.86
-89.72	-111.39
-92.47	-114.44
-97.96	-115.66
-104.98	-114.75
-111.39	-113.83
-117.19	-115.05
-123.29	-119.02
-132.75	-124.82
-146.18	-130
-161.74	-134.28
-175.78	-137.33
-184.94	-137.33
-187.99	-131.23
-185.85	-118.1
-180.05	-101.01
-173.65	-86.06
-168.15	-76.6
-164.18	-70.8
-160.83	-62.56
-155.03	-47.91
-142.82	-27.47
-123.6	-6.71
-99.79	8.24
-75.38	14.95
-53.71	14.04
-36.62	9.77
-21.97	6.71
-8.24	7.93
3.36	11.9
10.68	15.26
12.51	14.95
9.77	10.99
7.02	7.02
8.24	6.41
13.12	9.16
18.31	11.6
21.67	10.07
21.67	2.44
19.53	-6.71
17.4	-11.29
14.95	-8.54
12.21	0
10.99	8.54
11.9	12.51
14.65	10.38
18.62	3.66
21.06	-3.05
20.75	-6.41
18.01	-5.19
13.43	-0.31
7.63	3.36
2.44	2.44
0.61	-3.36
3.05	-9.77
8.85	-12.51
14.34	-10.07
16.48	-4.88
13.12	-2.75
6.41	-6.71
0	-14.95
-3.36	-22.89
-3.36	-25.63
-1.83	-22.89
-1.53	-17.4
-2.44	-13.73
-3.05	-14.95
-3.05	-20.45
-3.36	-27.47
-5.19	-32.35
-7.93	-32.96
-9.77	-29.3
-8.54	-21.97
-5.19	-13.43
-2.14	-7.02
-1.53	-6.1
-2.75	-11.6
-4.58	-20.14
-4.58	-26.55
-2.44	-26.55
1.22	-20.75
3.36	-14.34
1.53	-12.51
-3.97	-16.17
-10.68	-20.14
-14.04	-19.53
-12.82	-14.04
-8.24	-7.93
-3.66	-5.19
-1.22	-7.93
-1.53	-14.34
-3.66	-21.06
-6.1	-26.25
-7.93	-27.16
-7.32	-21.97
-3.05	-8.24
4.58	13.73
12.82	38.45
17.09	57.37
17.09	65.92
15.56	66.53
17.09	68.05
24.41	79.65
36.32	102.84
48.22	130.31
57.07	151.67
62.87	161.44
68.97	160.83
76.9	156.86
85.75	155.03
93.08	156.86
97.96	159.91
98.88	161.74
95.21	158.39
84.53	148.01
63.78	129.09
34.48	101.93
3.97	67.75
-20.45	29.91
-32.65	-5.8
-32.04	-32.96
-24.72	-46.69
-17.4	-47.3
-14.95	-41.2
-16.78	-35.4
-20.75	-33.26
-23.5	-33.87
-23.8	-35.1
-23.19	-36.01
-22.28	-37.84
-20.45	-40.89
-18.92	-42.72
-21.06	-39.06
-32.96	-26.25
-54.02	-3.97
-70.19	21.67
-54.93	43.03
16.17	57.68
146.48	75.68
302.43	117.19
425.72	198.36
465.39	312.81
406.49	427.25
280.76	495.30(R)
146.18	486.15
51.27	404.66
12.82	287.17
16.17	179.14
33.26	113.22
41.81	93.38
31.13	97.66
0.61	93.99
-46.08	57.68
-98.57	-13.12
-140.38	-95.83
-155.03	-155.64
-137.02	-169.98
-96.74	-142.21
-56.46	-98.27
-33.87	-65.92
-31.13	-58.29
-36.93	-69.89
-40.89	-85.75
-39.98	-95.83
-40.28	-98.27
-44.56	-95.21
-49.13	-90.33
-48.22	-84.23
-39.06	-79.04
-28.69	-77.51
-24.41	-81.48
-29.3	-89.42
-38.76	-97.66
-46.08	-101.62
-45.78	-97.35
-39.98	-85.75
-33.87	-70.8
-32.35	-59.2
-37.23	-56.76
-45.47	-64.7
-51.88	-78.43
-53.71	-90.94
-50.96	-95.83
-46.69	-91.25
-43.95	-82.4
-44.56	-75.99
-48.52	-77.82
-54.02	-87.89
-59.2	-100.1
-62.87	-107.42
-62.56	-104.98
-58.59	-94.91
-56.15	-84.53
-59.51	-81.48
-71.41	-88.81
-88.81	-102.23
-104.37	-114.14
-113.83	-119.32
-118.1	-117.49
-121.15	-114.14
-126.65	-114.44
-135.8	-119.32
-146.48	-124.82
-155.33	-126.65
-162.96	-123.6
-170.59	-119.32
-179.75	-116.88
-190.73	-116.27
-199.58	-114.14
-201.72	-106.81
-195.62	-93.08
-184.02	-75.68
-171.51	-55.85
-161.13	-36.32
-152.28	-18.92
-140.99	-5.8
-125.12	2.14
-104.06	4.58
-79.96	4.88
-55.54	6.71
-33.57	12.82
-15.56	22.28
-1.83	32.35
7.93	39.67
15.56	43.33
21.06	42.42
23.8	39.37
23.5	35.71
20.45	32.04
16.48	27.77
14.65	21.97
15.87	14.65
19.23	7.32
22.58	1.22
23.19	-1.53
21.36	-0.61
18.62	2.75
16.78	6.41
16.78	9.16
18.31	9.46
20.14	8.24
21.06	6.1
20.45	4.27
18.01	2.44
14.34	0.61
11.29	-0.92
10.07	-1.83
10.38	-2.14
11.6	-2.75
12.82	-4.27
13.43	-6.1
13.12	-6.71
10.99	-4.88
7.32	0
4.27	4.88
3.36	7.32
4.88	5.19
6.1	-1.53
4.58	-10.07
0	-16.17
-3.36	-16.78
-2.75	-11.6
1.22	-4.88
4.88	-0.92
3.66	-2.44
-1.83	-7.63
-7.02	-11.6
-7.93	-10.68
-4.27	-6.1
0	-2.14
1.22	-2.44
-1.22	-7.02
-5.19	-11.9
-7.02	-14.34
-6.41	-14.95
-3.97	-15.56
-1.53	-17.09
-0.31	-16.78
-0.92	-11.9
-2.75	-3.66
-5.8	3.66
-7.32	4.58
-6.1	-0.31
-2.44	-4.88
1.83	-1.83
4.88	11.9
7.32	31.74
10.68	49.74
16.78	59.2
23.8	61.34
29.6	62.56
32.65	71.11
34.48	90.94
39.37	120.85
49.13	153.5
63.48	178.83
79.65	190.12
93.69	186.77
103.15	173.95
108.03	161.44
108.34	155.64
104.98	157.47
98.57	160.52
88.81	157.17
74.16	144.04
55.54	122.07
34.18	95.21
13.12	65.92
-4.88	34.79
-16.78	3.97
-21.06	-21.06
-18.92	-33.87
-14.04	-33.87
-10.99	-26.55
-13.43	-22.58
-21.67	-27.16
-30.52	-37.54
-35.1	-46.39
-32.65	-49.13
-25.63	-47
-19.53	-44.25
-21.06	-39.37
-34.18	-25.94
-56.76	-0.92
-73.24	28.08
-56.76	47.61
18.01	51.57
153.5	51.88
316.47	76.6
446.47	148.93
490.11	265.2
432.74	390.32
307.01	476.68
169.68	488.59(R)
68.97	424.19
21.36	315.25
14.34	205.99
23.8	131.53
30.21	102.23
21.36	100.4
-7.63	93.69
-55.54	57.37
-111.39	-12.21
-154.42	-90.94
-165.71	-144.35
-139.47	-151.98
-91.25	-123.29
-48.22	-87.59
-30.21	-71.11
-36.01	-77.21
-49.44	-90.94
-54.02	-95.52
-45.78	-86.67
-33.26	-72.94
-26.55	-64.7
-27.47	-64.09
-31.74	-67.14
-34.48	-69.27
-33.57	-70.19
-32.04	-72.63
-32.35	-78.13
-35.1	-84.53
-38.15	-88.81
-39.67	-87.89
-38.15	-81.18
-34.48	-71.72
-30.52	-64.39
-29.3	-63.17
-30.82	-68.97
-34.79	-77.82
-38.76	-83.92
-41.81	-81.79
-43.64	-72.63
-43.95	-61.95
-43.33	-58.29
-43.64	-63.78
-46.08	-76.9
-51.27	-90.64
-58.29	-98.27
-65.61	-97.05
-70.8	-88.81
-72.63	-79.04
-71.72	-73.24
-71.11	-74.77
-72.33	-83.62
-77.82	-96.74
-87.28	-108.64
-98.27	-115.66
-109.25	-116.27
-119.63	-111.08
-130.31	-103.15
-142.82	-95.21
-156.56	-89.72
-167.85	-87.28
-175.48	-89.42
-179.14	-94.6
-180.66	-99.79
-181.88	-99.18
-182.8	-89.42
-182.5	-72.94
-181.58	-54.93
-180.05	-42.11
-176.09	-34.48
-165.41	-27.47
-145.26	-14.65
-117.19	3.97
-87.28	22.28
-62.56	34.48
-45.47	39.06
-32.04	38.76
-18.01	37.54
-2.75	36.01
10.99	32.96
20.14	28.08
25.94	24.41
31.74	25.02
37.84	30.82
40.89	39.67
38.76	47
32.04	49.74
24.41	47.3
21.06	40.89
22.28	32.96
24.72	25.94
25.94	20.14
24.11	15.26
21.67	12.82
20.45	12.82
22.89	14.65
27.77	17.4
31.13	18.62
30.82	18.92
26.86	19.53
21.67	20.75
18.92	20.14
19.53	16.48
22.89	10.68
25.63	5.49
25.63	3.97
22.28	5.49
17.4	7.93
13.43	7.93
11.6	5.8
11.6	2.75
13.43	0
16.78	-0.61
20.75	2.44
22.89	7.32
19.84	10.38
12.21	8.54
3.97	2.75
0.31	-3.05
1.22	-5.8
4.27	-5.49
6.1	-6.1
4.58	-10.38
2.14	-15.26
2.14	-14.95
4.27	-6.41
6.41	6.71
6.71	16.17
4.58	16.17
2.14	7.63
3.36	-3.36
8.85	-9.46
16.17	-7.93
19.53	-2.14
16.17	1.83
8.24	0.92
1.22	-3.97
0	-7.93
4.27	-4.88
9.77	4.88
12.82	18.01
14.04	29.91
16.17	39.37
20.45	48.22
25.94	58.59
29.91	69.27
31.13	78.74
32.65	87.89
37.54	99.49
47.91	117.19
62.56	139.77
76.6	162.05
86.36	175.78
92.16	179.44
96.74	177.61
102.54	177
109.25	182.19
114.44	188.6
114.75	188.29
107.73	174.87
93.38	151.67
72.63	125.43
47.91	101.01
21.67	77.51
-0.92	50.66
-14.34	20.45
-16.78	-7.02
-11.6	-24.72
-4.58	-30.21
-1.83	-27.47
-5.19	-22.28
-10.68	-18.62
-14.04	-17.7
-14.34	-20.75
-12.82	-26.86
-13.12	-33.87
-15.26	-39.06
-19.84	-37.84
-29.6	-26.55
-46.39	-6.41
-63.17	16.48
-58.59	33.87
-6.41	42.42
108.64	48.52
267.33	72.02
416.26	133.97
496.22	239.26
476.07	364.69
372.01	467.83
235.6	507.81(R)
120.54	468.75
52.49	369.87
26.25	252.69
21.06	159.3
20.45	112.92
15.56	106.51
1.83	111.08
-26.55	93.99
-71.11	38.15
-120.24	-44.56
-153.81	-122.99
-155.64	-166.32
-126.65	-164.49
-83.92	-131.23
-48.83	-93.08
-32.35	-68.97
-30.21	-62.87
-30.52	-68.05
-27.16	-75.68
-21.67	-80.87
-19.84	-83.62
-26.25	-85.14
-37.84	-86.06
-47	-86.06
-48.22	-84.53
-41.2	-80.26
-31.13	-72.94
-24.41	-64.39
-22.58	-59.51
-24.11	-61.34
-26.55	-69.58
-27.47	-78.74
-26.86	-83.31
-26.55	-81.48
-28.08	-76.29
-31.13	-72.33
-35.4	-71.72
-39.06	-72.33
-39.98	-71.11
-39.98	-68.97
-41.2	-69.27
-44.25	-73.24
-47.61	-79.65
-48.52	-83.92
-46.39	-82.4
-43.33	-77.21
-45.17	-73.85
-53.41	-77.82
-65.92	-89.72
-78.13	-104.37
-85.75	-115.36
-88.5	-118.71
-89.11	-115.36
-91.25	-108.34
-97.05	-101.32
-106.2	-96.74
-118.71	-96.74
-133.06	-101.62
-146.18	-110.47
-155.64	-118.71
-160.83	-121.15
-163.57	-116.88
-169.07	-110.17
-179.14	-104.98
-189.82	-101.01
-194.4	-93.08
-188.29	-75.68
-174.56	-49.74
-159.91	-23.5
-149.23	-7.63
-139.16	-4.88
-124.82	-9.46
-102.54	-10.68
-74.77	-1.22
-47.3	17.09
-25.33	34.18
-10.07	40.59
-2.14	34.48
1.22	23.5
2.44	17.4
6.1	21.36
15.56	32.04
28.99	41.2
40.28	42.11
44.25	34.48
39.37	23.8
31.13	15.87
25.33	14.34
24.72	19.23
27.16	25.33
30.21	28.38
32.04	26.25
32.35	19.84
31.13	14.04
28.08	14.34
24.41	19.53
21.97	24.11
21.36	21.67
21.06	11.29
19.53	-0.31
16.17	-4.27
12.21	3.66
10.68	19.84
12.82	35.1
17.7	42.42
23.5	38.15
26.55	22.89
24.11	1.22
16.78	-18.01
7.93	-26.55
1.83	-20.75
0.92	-5.49
4.88	8.85
10.38	14.34
15.26	11.6
18.01	7.93
17.09	9.16
13.43	14.04
9.16	16.48
6.41	12.51
6.1	2.44
6.71	-8.24
5.8	-14.04
2.75	-12.82
-1.22	-6.71
-3.36	0
-2.75	3.97
-0.92	3.36
1.53	0.92
3.97	0.61
6.1	5.19
7.63	14.95
8.85	27.16
11.9	39.06
18.31	49.44
27.16	57.07
33.87	62.26
35.4	67.14
32.35	75.99
29.6	92.77
32.96	119.32
45.17	150.45
62.87	177.61
79.96	192.57
92.77	192.87
100.4	182.5
102.23	168.76
99.79	159.61
95.83	159.3
92.47	164.18
88.81	166.02
81.79	157.78
66.53	137.02
41.2	105.9
10.38	69.89
-16.17	33.26
-30.21	1.22
-29.6	-22.89
-20.14	-36.01
-10.38	-37.84
-7.02	-32.35
-9.77	-25.33
-15.56	-19.53
-20.45	-14.95
-22.89	-10.07
-22.89	-4.58
-20.45	1.83
-18.01	7.63
-17.4	12.82
-24.11	18.92
-41.81	25.94
-63.78	31.13
-67.14	32.35
-22.28	31.43
88.81	36.93
248.72	67.44
404.36	139.77
492.86	255.13
478.52	387.88
375.06	494.69
234.07	535.28(R)
112.61	496.83
41.5	401.61
19.23	292.05
25.02	205.99
35.1	159.91
32.04	142.82
8.54	130
-34.79	99.49
-88.81	42.72
-135.8	-30.52
-158.08	-96.13
-148.01	-133.97
-112.92	-136.72
-70.8	-114.75
-40.28	-87.28
-29.6	-69.58
-33.26	-66.53
-40.89	-73.85
-44.25	-83.92
-41.81	-91.55
-35.71	-93.38
-29.6	-88.2
-24.72	-77.51
-21.36	-67.14
-19.23	-62.26
-18.92	-66.22
-21.36	-77.21
-25.63	-89.72
-31.43	-98.88
-38.45	-101.32
-45.47	-98.27
-50.35	-91.86
-51.57	-84.84
-49.44	-80.87
-45.17	-82.09
-40.89	-87.59
-37.84	-93.99
-36.93	-96.44
-37.54	-91.55
-39.06	-80.87
-41.5	-70.19
-44.86	-65.31
-48.22	-67.14
-50.96	-72.94
-52.8	-77.21
-54.93	-78.13
-59.2	-78.74
-64.39	-81.79
-67.44	-88.81
-66.83	-97.66
-65.92	-104.98
-69.58	-109.86
-81.18	-111.08
-98.27	-109.25
-114.14	-106.2
-123.6	-105.9
-127.87	-110.47
-131.23	-119.02
-138.85	-126.65
-150.76	-129.09
-163.88	-124.51
-173.65	-115.36
-178.22	-104.06
-179.14	-91.55
-180.36	-79.96
-183.11	-71.11
-184.94	-65
-180.36	-57.68
-166.93	-43.03
-146.48	-18.62
-125.12	10.07
-106.81	32.35
-91.86	41.2
-76.6	39.06
-58.29	34.79
-37.84	35.71
-18.31	41.81
-1.53	46.69
11.9	45.17
21.67	39.06
26.86	33.87
27.47	34.79
25.63	42.11
23.8	50.05
24.11	53.71
24.41	51.27
22.28	43.95
17.4	34.79
12.82	28.08
11.6	25.63
14.65	25.94
18.62	28.38
21.06	32.35
21.06	38.76
20.45	47
20.45	54.02
20.45	54.63
18.31	46.08
14.95	32.35
11.6	21.06
9.77	17.4
10.07	21.36
10.68	28.69
10.99	34.79
10.68	36.93
10.68	35.71
11.9	31.74
14.04	25.33
15.56	17.7
14.65	11.6
9.77	7.32
2.14	4.88
-4.58	2.75
-6.71	0.31
-3.66	-1.83
1.83	-1.22
5.49	2.75
6.41	9.46
5.8	16.48
5.19	21.97
4.27	23.8
1.22	21.67
-5.19	15.87
-11.6	9.16
-13.43	3.66
-8.85	1.83
-1.83	2.75
2.44	3.36
2.44	2.44
0.92	2.44
2.44	9.46
10.07	25.94
20.14	48.52
26.55	68.97
25.33	79.65
18.62	78.43
12.51	72.02
12.82	70.5
21.97	79.04
36.01	96.74
49.74	119.02
60.12	140.08
67.44	156.86
73.55	168.46
79.35	175.78
86.06	180.66
91.86	184.63
96.74	188.9
98.27	191.04
93.99	186.16
82.09	171.51
63.78	147.09
41.81	115.66
18.92	80.57
-0.61	45.17
-13.73	14.04
-18.92	-9.46
-16.48	-21.97
-11.29	-24.72
-9.77	-23.5
-14.95	-23.19
-24.72	-26.86
-32.35	-33.57
-32.65	-38.15
-25.94	-36.62
-17.4	-28.99
-13.43	-19.84
-18.31	-15.26
-32.65	-14.34
-54.93	-10.38
-75.07	2.44
-74.46	22.28
-28.99	41.2
75.68	54.32
226.44	73.55
376.59	123.29
467.22	218.51
461.43	345.15
367.13	460.82
231.32	516.97(R)
111.39	490.11
42.11	397.64
22.58	282.59
30.52	188.6
42.42	138.24
43.03	123.29
25.33	116.27
-12.21	91.25
-64.09	36.32
-116.58	-38.45
-150.76	-105.9
-152.89	-141.6
-124.82	-139.77
-83.31	-115.66
-48.52	-92.47
-31.74	-85.45
-31.43	-92.47
-38.45	-101.93
-43.03	-103.15
-42.42	-94.6
-38.45	-83.01
-34.18	-74.46
-32.04	-72.94
-33.57	-78.13
-37.23	-84.53
-39.67	-86.36
-38.15	-80.26
-32.04	-68.97
-25.02	-58.9
-21.06	-55.54
-21.06	-59.2
-22.28	-64.09
-22.58	-66.22
-22.58	-65
-25.94	-63.78
-34.18	-66.53
-44.56	-72.94
-52.19	-81.18
-54.32	-87.59
-52.49	-90.33
-50.66	-88.81
-50.35	-84.53
-51.88	-81.48
-53.71	-82.4
-55.24	-86.36
-57.98	-91.55
-61.65	-95.21
-65.61	-96.44
-69.27	-98.27
-71.72	-102.23
-72.94	-107.12
-75.07	-110.78
-80.87	-110.47
-90.94	-107.42
-104.98	-104.68
-121.15	-103.45
-137.02	-104.06
-148.93	-105.9
-156.25	-108.64
-159.61	-112.92
-162.66	-118.41
-168.76	-122.68
-177.31	-121.15
-184.33	-110.47
-184.94	-92.16
-180.05	-71.41
-174.56	-55.24
-173.95	-48.52
-177	-48.83
-175.78	-49.74
-163.57	-44.86
-138.55	-32.04
-106.2	-14.95
-74.46	2.75
-49.13	17.4
-29.6	28.69
-14.65	37.23
-2.44	42.11
7.63	41.5
15.26	35.71
20.75	28.38
24.41	22.89
27.47	22.28
29.91	26.55
30.82	32.96
29.6	36.01
26.86	32.96
24.11	24.11
23.8	13.43
26.55	6.41
29.91	5.8
30.52	9.77
27.16	14.04
20.75	15.56
16.17	14.04
17.4	12.51
22.28	12.51
26.86	13.43
27.47	12.82
23.5	9.77
17.7	6.1
14.04	3.66
13.43	2.75
14.65	2.14
16.48	0.92
18.31	0
20.45	1.83
23.19	7.93
25.02	15.56
24.11	19.84
19.84	16.78
13.12	7.02
7.02	-3.97
3.97	-10.38
5.19	-10.38
8.85	-7.32
10.99	-6.41
9.16	-9.46
4.58	-14.65
0.31	-18.31
-1.22	-18.31
0.92	-14.34
5.8	-8.85
10.07	-2.44
12.82	4.27
14.04	10.38
14.34	13.43
14.65	10.99
13.73	3.36
10.68	-5.49
6.1	-12.21
1.53	-14.95
-0.31	-14.34
2.14	-12.51
7.93	-7.63
14.04	2.14
18.62	18.62
21.06	37.54
23.19	53.41
26.86	63.78
34.18	73.55
44.25	89.11
53.41	113.53
59.81	141.3
63.48	163.27
66.83	174.26
73.85	174.56
84.84	169.37
96.44	164.49
104.98	162.35
109.56	164.18
111.39	167.85
113.83	169.07
114.75	162.05
107.42	142.82
86.98	112.61
53.71	75.68
15.56	38.76
-16.17	7.93
-32.96	-14.34
-35.1	-27.47
-27.77	-32.65
-18.92	-31.74
-14.34	-27.16
-15.26	-22.58
-17.09	-21.67
-17.09	-27.16
-14.04	-38.15
-9.77	-49.13
-7.93	-54.02
-10.68	-48.83
-19.84	-33.87
-37.54	-13.43
-62.56	6.71
-80.26	20.45
-64.39	25.02
12.51	23.19
155.64	27.47
330.2	59.81
470.58	136.72
517.88	254.82
455.93	383
321.96	475.46
177.31	492.86(R)
72.02	428.16
19.23	310.06
4.27	187.38
6.1	102.54
10.68	71.41
9.46	75.07
-5.19	78.43
-38.45	50.05
-86.67	-14.95
-133.67	-93.69
-159.91	-151.98
-153.5	-169.07
-119.63	-151.06
-76.9	-121.77
-44.86	-102.54
-32.65	-98.88
-34.79	-101.93
-39.06	-101.32
-39.06	-94.91
-35.1	-87.28
-32.65	-83.01
-34.18	-82.4
-36.62	-83.31
-34.79	-84.53
-29.3	-86.06
-23.19	-87.28
-20.75	-88.2
-23.19	-88.81
-28.38	-90.03
-34.79	-92.47
-40.28	-95.83
-43.64	-97.96
-43.03	-96.44
-39.06	-91.55
-34.18	-86.36
-31.74	-85.45
-33.57	-89.11
-38.15	-93.38
-41.5	-93.08
-41.81	-86.98
-39.98	-79.04
-38.76	-75.68
-40.89	-78.43
-46.69	-84.84
-53.71	-90.64
-58.9	-94.3
-61.34	-97.35
-61.34	-101.01
-60.73	-103.45
-63.17	-102.84
-70.5	-100.4
-81.79	-99.79
-93.99	-104.37
-104.98	-112.61
-114.14	-120.54
-123.29	-124.51
-134.28	-125.12
-146.79	-125.12
-158.39	-125.43
-166.93	-124.21
-172.12	-119.02
-174.87	-110.78
-177	-104.06
-180.36	-103.76
-184.02	-108.34
-185.85	-109.25
-183.41	-99.49
-175.48	-77.51
-162.35	-50.05
-146.18	-25.02
-127.56	-7.63
-107.12	3.36
-85.14	9.77
-64.09	12.21
-46.69	10.07
-32.35	3.36
-19.84	-3.97
-7.02	-7.63
5.8	-4.58
16.78	3.05
25.02	12.51
31.43	20.75
36.62	25.33
39.98	25.63
40.89	21.67
37.23	12.51
30.52	1.53
24.72	-6.1
21.97	-7.93
23.19	-3.66
27.47	2.14
32.35	5.49
36.62	5.8
38.76	4.58
36.93	3.36
30.52	0.61
21.06	-5.19
13.12	-13.12
10.07	-20.75
12.51	-23.8
18.92	-20.45
24.72	-12.51
27.16	-3.05
26.25	3.36
22.28	3.66
16.78	-2.14
11.9	-10.68
10.38	-17.4
13.12	-19.84
18.62	-17.7
23.8	-13.43
24.41	-10.07
19.84	-9.46
14.04	-10.68
10.38	-12.51
9.46	-14.04
8.85	-15.56
6.1	-18.31
1.22	-24.11
-2.14	-30.82
-0.31	-34.18
5.49	-30.21
11.6	-19.84
13.43	-7.32
10.68	-0.31
5.49	-2.75
0	-13.12
-3.05	-25.33
-2.44	-32.35
1.53	-30.82
9.16	-21.67
15.87	-12.21
16.48	-8.54
10.38	-12.82
0.92	-20.14
-5.8	-22.58
-5.19	-16.17
2.14	-1.83
12.82	16.78
22.89	36.01
29.6	52.49
31.43	61.65
30.21	62.87
28.99	59.51
30.82	60.42
37.84	74.46
49.44	102.84
63.48	136.72
77.82	164.18
90.64	176.09
100.71	172.12
108.03	160.52
113.22	151.06
115.66	148.93
113.83	152.59
105.59	153.81
88.5	144.04
65.92	121.15
43.33	90.03
23.8	55.85
8.85	24.11
-2.75	-3.97
-10.68	-27.77
-14.65	-45.47
-15.56	-56.15
-14.34	-61.34
-13.43	-65.61
-14.04	-73.24
-15.56	-81.79
-16.17	-86.36
-15.56	-84.23
-13.12	-76.6
-9.77	-67.75
-7.93	-60.42
-12.82	-50.96
-28.38	-33.57
-50.35	-6.41
-61.04	22.89
-33.87	44.86
54.02	57.68
202.64	71.11
376.28	104.37
517.88	171.81
577.7	266.72
540.47	358.89
431.52	409.55(R)
301.82	393.98
195.92	317.69
133.36	213.01
107.73	119.02
99.18	61.04
87.89	36.93
61.95	22.28
18.92	-9.46
-36.62	-70.5
-93.38	-149.23
-135.5	-213.62
-151.37	-234.99
-136.72	-207.21
-101.32	-151.67
-63.78	-100.1
-40.59	-74.16
-37.54	-74.46
-47.91	-86.36
-59.51	-96.13
-62.56	-98.27
-55.85	-94.3
-44.56	-87.59
-36.32	-80.57
-35.1	-74.77
-40.59	-72.02
-48.52	-73.24
-53.41	-77.21
-53.71	-81.79
-50.96	-83.92
-47.3	-80.57
-45.17	-72.02
-44.86	-60.73
-45.47	-52.8
-47.3	-54.32
-50.96	-66.22
-54.93	-81.18
-57.98	-88.81
-58.9	-83.62
-57.98	-68.05
-57.07	-51.27
-57.68	-42.72
-59.81	-46.69
-62.56	-59.51
-65.61	-74.16
-69.58	-83.31
-73.55	-82.09
-76.29	-71.41
-78.74	-58.59
-80.87	-53.1
-84.53	-61.65
-91.25	-82.09
-100.1	-104.37
-110.78	-115.97
-123.29	-112
-136.11	-96.44
-148.62	-81.18
-158.69	-75.38
-166.32	-80.87
-173.65	-90.94
-182.8	-97.66
-194.09	-95.21
-205.69	-84.84
-213.93	-72.02
-217.29	-61.04
-216.67	-54.02
-215.15	-50.35
-216.37	-49.13
-219.12	-47.91
-219.12	-43.03
-211.79	-32.65
-194.4	-16.48
-168.76	0.61
-139.47	13.73
-111.08	19.84
-84.84	21.36
-61.04	23.19
-40.59	27.16
-23.5	30.82
-10.99	29.6
-2.14	23.5
4.88	17.09
11.9	15.56
21.06	20.45
30.52	28.69
37.84	34.79
39.98	36.32
35.71	35.1
28.08	32.04
21.97	26.55
21.36	18.92
25.94	12.21
31.13	10.07
33.57	14.34
33.87	22.58
36.01	32.04
43.33	41.81
57.07	53.1
78.13	64.7
108.03	70.19
151.37	64.7
209.35	49.74
272.83	36.32
328.37	32.65
361.63	34.48
366.52	25.94
349.12	-10.38
319.82	-80.26
284.42	-173.03
239.26	-269.47
173.95	-358.58
79.96	-444.95
-39.37	-536.8
-164.18	-632.63
-269.78	-716.25
-344.24	-763.55(R)
-395.2	-758.36
-444.95	-706.18
-511.47	-631.1
-593.26	-556.95
-672	-501.71
-726.93	-474.24
-747.07	-473.63
-735.17	-493.16
-705.57	-524.9
-675.05	-560.91
-652.77	-594.18
-637.21	-616.46
-615.84	-617.37
-574.34	-587.46
-510.86	-529.48
-440.37	-460.51
-383.91	-406.49
-355.83	-385.13
-353.09	-393.07
-359.8	-408.63
-358.58	-407.71
-337.22	-373.84
-292.97	-303.65
	
	
	
	
	
	
	
	
	
	
	
	
	
	
	
	
	
	
	
	
	
	
	
