-134.58	-223.69
-136.72	-224.91
-139.16	-227.97
-139.77	-231.02
-138.24	-232.24
-136.41	-232.54
-136.41	-232.85
-138.55	-233.76
-142.21	-234.38
-145.26	-233.15
-147.09	-230.41
-148.01	-228.27
-149.54	-228.27
-151.98	-231.02
-155.03	-233.76
-158.39	-235.29
-161.74	-235.29
-165.1	-234.07
-168.15	-233.46
-170.9	-233.15
-172.73	-233.46
-174.26	-233.46
-175.78	-233.46
-177.31	-232.54
-178.22	-230.71
-177.92	-227.66
-175.17	-222.47
-169.68	-214.84
-162.66	-204.16
-154.42	-191.65
-145.57	-178.22
-136.41	-164.79
-125.73	-151.98
-112.61	-137.94
-97.35	-121.77
-80.87	-104.68
-66.22	-88.2
-54.63	-74.77
-45.78	-64.39
-37.84	-54.93
-29.6	-43.95
-20.75	-30.21
-12.82	-15.56
-7.32	-3.66
-4.58	3.05
-4.27	4.58
-4.88	3.36
-5.8	3.05
-6.41	5.8
-6.71	10.68
-6.1	15.56
-5.19	18.01
-4.58	16.48
-4.27	12.82
-3.66	8.54
-2.75	6.1
-1.22	5.8
0	7.02
0.92	7.32
0.61	6.1
-0.61	2.44
-3.05	-1.83
-5.8	-4.88
-8.24	-5.8
-9.46	-5.49
-9.46	-6.1
-8.54	-8.54
-8.24	-11.9
-9.16	-14.65
-10.68	-14.95
-13.12	-12.51
-14.95	-9.46
-16.48	-6.71
-16.17	-4.27
-14.04	0.31
-9.46	8.85
-3.66	22.28
1.22	39.06
4.27	54.93
3.97	67.14
2.14	74.16
0.92	78.43
3.36	83.31
10.99	91.86
22.58	106.2
34.48	125.12
44.25	145.87
49.74	164.79
52.19	179.44
54.02	187.68
56.76	190.43
61.04	189.82
66.53	188.9
72.02	190.12
75.68	194.09
76.6	198.97
75.07	200.81
70.19	194.09
60.42	173.65
43.33	137.63
18.62	90.33
-10.68	39.06
-35.1	-6.71
-47.91	-41.81
-48.52	-65.31
-43.03	-80.87
-39.67	-91.25
-40.89	-98.27
-44.86	-101.93
-47	-103.45
-47	-104.06
-46.39	-105.59
-47.61	-108.34
-50.35	-111.39
-51.88	-112.61
-50.96	-112
-47.61	-110.47
-44.25	-109.56
-43.03	-109.25
-44.56	-109.25
-47.3	-107.73
-49.44	-104.68
-50.05	-100.4
-48.83	-96.44
-46.39	-93.69
-43.64	-93.69
-40.59	-94.3
-37.84	-90.03
-36.32	-73.85
-36.01	-41.5
-35.4	5.8
-27.47	65.92
-4.58	140.99
39.98	242.31
107.42	391.54
198.97	603.64
316.77	870.06
464.48	1155.7
641.78	1407.47
834.35	1575.01
1011.35	1623.54(R)
1133.12	1535.95
1163.02	1310.73
1082.15	963.75
903.63	535.58
672	101.01
440.98	-245.97
253.6	-434.88
124.51	-453.8
39.67	-354.92
-22.58	-230.1
-72.02	-157.47
-105.59	-159
-119.93	-203.55
-119.32	-242.92
-113.53	-250.24
-112	-231.02
-115.05	-208.13
-118.71	-198.97
-120.24	-203.25
-119.93	-209.96
-119.32	-210.57
-119.63	-205.38
-120.54	-198.67
-121.46	-194.09
-122.38	-192.26
-122.99	-192.26
-122.99	-192.26
-122.38	-191.65
-121.15	-191.04
-120.24	-191.04
-119.93	-191.65
-121.15	-192.87
-122.68	-193.18
-122.99	-191.04
-121.77	-187.07
-119.02	-182.8
-117.49	-180.05
-118.41	-179.75
-121.15	-180.36
-123.9	-180.05
-124.51	-177.92
-122.99	-173.95
-121.15	-168.76
-120.54	-163.57
-120.54	-158.39
-120.85	-154.72
-120.54	-153.2
-120.54	-154.11
-122.07	-156.56
-124.21	-159
-126.95	-160.83
-129.39	-162.96
-131.23	-165.1
-133.06	-167.24
-135.5	-168.46
-138.55	-168.15
-141.6	-165.71
-143.13	-161.74
-143.13	-157.78
-141.6	-155.33
-140.08	-154.72
-138.55	-155.33
-137.33	-154.42
-135.19	-151.67
-132.75	-146.79
-128.78	-140.69
-123.9	-133.67
-117.49	-125.12
-108.34	-113.22
-97.96	-97.66
-86.67	-80.57
-76.6	-64.7
-68.36	-51.27
-61.04	-39.98
-53.71	-28.69
-45.17	-17.4
-36.32	-6.41
-28.38	2.75
-22.58	10.07
-19.23	15.56
-17.4	20.75
-16.17	25.63
-15.87	29.91
-16.48	32.96
-18.31	34.48
-20.14	35.1
-21.36	35.1
-21.06	34.48
-20.14	32.96
-19.84	30.52
-20.75	27.16
-21.97	23.8
-22.58	20.45
-21.36	17.4
-18.62	14.95
-16.48	12.82
-15.26	10.99
-15.26	9.77
-15.87	8.24
-16.48	6.41
-16.48	3.36
-17.4	0
-19.53	-3.36
-22.58	-5.49
-26.55	-5.8
-29.91	-5.8
-32.04	-6.41
-33.26	-8.85
-34.48	-12.21
-35.1	-15.26
-35.4	-17.09
-35.4	-17.09
-35.1	-16.17
-33.87	-14.34
-31.13	-10.99
-25.94	-3.66
-18.01	8.85
-9.46	25.63
-3.05	44.56
0.31	65.31
3.66	91.25
11.9	128.48
29.6	181.27
58.29	249.94
97.05	330.2
145.26	418.4
205.99	512.7
282.9	608.52
373.84	693.97
469.06	750.73
551.15	759.58
601.81	705.87
610.35	580.75
577.39	381.47
511.47	114.14
423.58	-203.55
322.88	-540.16
214.23	-861.21
96.74	-1140.14
-34.48	-1363.53
-182.8	-1526.79
-343.32	-1624.45
-499.57	-1650.09(R)
-625.92	-1606.75
-698.55	-1510.62
-709.53	-1388.86
-673.22	-1265.87
-616.15	-1150.82
-563.96	-1039.12
-531.01	-923.77
-515.14	-802.92
-503.85	-684.51
-485.53	-578.31
-454.1	-492.25
-411.38	-432.74
-363.46	-403.44
-316.47	-405.27
-274.96	-432.13
-241.09	-468.75
-214.54	-496.52
-193.48	-500.79
-176.39	-478.82
-161.44	-436.4
-149.23	-379.64
-139.16	-311.89
-127.26	-231.32
-107.73	-136.11
-76.6	-30.21
-37.84	73.55
0.31	158.69
28.69	214.23
43.33	238.34
46.69	240.78
45.47	237.12
45.17	238.65
48.22	249.02
54.02	263.98
61.65	277.4
69.58	286.25
76.29	292.05
80.87	296.63
83.92	303.65
86.36	313.72
90.33	328.06
96.74	346.37
106.2	367.74
117.19	390.63
129.09	412.29
141.3	432.13
152.89	450.74
162.96	470.89
171.51	494.38
179.14	522.77
187.68	555.73
198.36	591.13
211.18	626.22
224.61	659.48
238.04	691.22
250.85	722.96
263.67	755
275.57	787.35
287.17	817.57
297.55	842.9
306.09	862.73
311.89	877.99
314.03	889.89
312.19	899.35
307.92	905.46
302.73	906.68
297.85	901.49
293.58	889.59
288.39	872.19
281.07	851.44
270.69	827.03
257.87	798.65
242.92	765.69
226.75	728.76
209.96	690.61
193.79	652.77
179.75	616.46
168.15	580.44
157.78	542.6
147.09	502.93
133.67	461.12
118.1	419.62
102.54	379.94
89.42	343.63
79.04	310.06
70.19	277.71
61.34	246.28
52.8	216.06
46.39	187.07
42.72	159.3
40.28	133.06
36.01	109.56
28.38	89.42
18.62	73.85
10.99	62.87
8.24	55.54
9.16	49.13
10.68	42.42
10.07	34.79
7.63	27.77
4.58	23.5
2.44	23.8
1.22	27.77
-0.92	33.57
-3.97	37.54
-6.41	37.23
-7.63	31.74
-7.02	23.19
-6.1	15.56
-6.71	12.82
-8.24	14.95
-9.16	19.53
-8.54	22.28
-7.32	20.45
-7.63	15.56
-10.38	10.68
-14.65	8.54
-18.01	8.54
-17.09	8.85
-13.12	7.32
-8.85	3.36
-7.32	-1.22
-9.77	-4.58
-13.73	-5.49
-17.09	-3.66
-17.4	-0.92
-14.95	0.61
-12.51	-1.22
-11.6	-5.49
-12.51	-8.85
-13.43	-8.85
-13.12	-6.41
-11.6	-3.66
-11.29	-3.97
-13.73	-8.24
-18.01	-14.34
-21.36	-19.23
-20.45	-19.53
-16.17	-15.26
-10.68	-9.46
-6.41	-6.41
-5.19	-8.24
-7.32	-13.43
-12.21	-18.92
-18.92	-22.28
-24.72	-22.89
-26.86	-22.28
-23.8	-20.45
-16.48	-17.09
-9.16	-12.51
-5.49	-7.93
-4.88	-5.49
-6.41	-6.41
-7.63	-7.93
-8.54	-8.54
-9.16	-6.1
-9.46	-1.83
-7.63	1.83
-4.27	5.19
-0.61	9.77
3.36	19.23
7.63	34.79
12.82	54.02
18.31	71.41
21.67	81.79
21.67	84.84
19.84	85.45
21.06	90.33
27.77	103.45
39.67	122.99
53.71	145.26
66.22	167.85
75.99	189.82
83.31	209.35
88.2	224.3
91.55	231.32
93.69	230.71
96.13	225.52
100.71	220.95
106.2	220.34
109.25	224
107.12	228.58
100.4	229.49
91.25	220.03
79.65	195.92
62.87	157.17
38.76	109.56
10.38	62.56
-13.73	24.11
-25.94	-3.66
-25.63	-24.72
-20.14	-42.11
-17.7	-57.68
-21.06	-68.36
-26.25	-71.72
-29.6	-69.58
-29.3	-65
-27.16	-62.56
-25.33	-63.78
-24.41	-67.44
-23.19	-70.19
-21.36	-70.5
-19.84	-67.75
-18.92	-64.09
-19.23	-62.26
-21.06	-62.87
-23.5	-65.31
-25.02	-65.61
-24.41	-61.95
-21.36	-54.93
-18.01	-48.22
-16.17	-46.39
-16.48	-47.3
-17.4	-43.64
-15.87	-25.02
-8.85	9.77
7.32	55.54
35.4	107.42
77.51	173.34
134.58	278.63
209.66	454.71
308.53	708.31
440.67	1007.08
610.35	1293.03
809.63	1504.52
1010.74	1604.92(R)
1172.79	1583.25
1253.36	1439.21
1218.87	1176.15
1063.54	806.88
821.23	379.33
551.15	-15.87
315.86	-282.59
152.59	-373.54
57.98	-317.38
3.05	-203.55
-36.62	-124.51
-67.44	-119.32
-85.75	-163.88
-91.25	-206.91
-89.42	-216.37
-89.11	-196.23
-92.16	-172.42
-96.44	-164.79
-98.57	-174.56
-99.79	-188.6
-101.01	-194.09
-101.62	-189.21
-100.1	-179.44
-97.66	-173.03
-95.83	-173.03
-97.35	-177.61
-101.32	-181.58
-104.68	-180.97
-105.29	-176.39
-103.15	-170.9
-99.79	-167.54
-97.66	-166.32
-97.05	-165.71
-97.66	-164.18
-99.49	-162.66
-103.45	-162.35
-108.95	-163.88
-113.53	-164.79
-113.83	-163.27
-109.56	-158.69
-103.45	-153.5
-100.1	-151.37
-101.93	-153.5
-107.12	-158.39
-111.69	-161.44
-113.22	-160.22
-112.92	-156.25
-112.61	-152.89
-114.14	-153.2
-117.19	-156.25
-120.24	-159
-122.07	-160.52
-122.07	-159.91
-121.77	-159
-123.6	-159.61
-128.78	-162.05
-136.11	-166.02
-143.13	-169.37
-146.48	-169.37
-145.87	-166.02
-143.43	-163.27
-142.82	-165.71
-144.96	-175.78
-147.09	-187.38
-146.48	-191.04
-141.6	-181.27
-133.36	-160.22
-124.51	-137.94
-116.58	-123.6
-109.56	-118.41
-101.93	-117.19
-91.86	-112.92
-78.74	-102.84
-63.78	-87.59
-48.52	-70.5
-33.87	-53.1
-20.14	-36.01
-7.63	-18.92
2.44	-1.53
8.85	14.34
12.21	26.86
14.34	35.4
17.4	40.28
21.97	42.72
27.16	43.03
31.13	41.81
32.65	40.28
32.35	39.98
30.52	42.11
29.3	46.69
28.69	51.27
28.38	53.41
27.16	51.27
25.33	46.69
25.63	42.72
28.99	40.89
34.18	39.67
37.84	36.93
35.4	30.52
28.38	21.97
21.06	15.56
18.62	14.34
21.36	17.7
26.25	22.58
28.38	25.63
27.16	24.72
24.41	20.75
23.8	16.78
25.63	14.65
27.47	16.17
26.86	20.45
23.19	25.02
18.62	27.47
16.78	28.69
19.84	32.35
25.63	42.11
30.82	57.37
32.35	73.24
29.91	84.84
26.25	92.77
26.55	101.32
32.65	113.83
44.56	130.31
58.9	147.71
72.63	162.96
83.31	177.61
91.25	193.79
95.83	212.71
97.66	231.32
97.05	244.45
96.44	248.72
98.88	244.75
104.06	236.21
109.56	229.49
112.3	228.27
110.78	231.02
106.51	230.1
99.18	216.67
85.14	185.24
61.34	139.47
30.82	89.11
1.83	43.95
-15.87	7.93
-19.84	-19.53
-14.34	-40.28
-8.24	-54.93
-7.63	-62.26
-11.9	-63.17
-18.01	-60.73
-22.89	-59.81
-23.8	-62.87
-21.36	-70.5
-17.7	-79.35
-14.65	-86.36
-14.65	-88.81
-17.7	-85.45
-21.97	-78.43
-24.41	-70.19
-24.11	-64.09
-21.36	-61.95
-19.23	-64.09
-18.92	-68.66
-19.23	-73.55
-18.62	-76.9
-15.87	-78.74
-12.51	-78.13
-10.68	-73.55
-12.21	-60.73
-16.17	-35.1
-17.7	3.66
-9.77	53.1
14.95	113.53
61.34	191.35
130	304.87
218.51	477.29
326.84	714.11
460.51	993.35
624.39	1267.09
812.07	1479.8
1000.67	1586.61(R)
1151.73	1564.94
1224.37	1408.69
1188.96	1127.62
1041.87	749.21
813.6	325.62
559.08	-60.42
335.39	-325.93
175.17	-428.16
76.6	-386.05
14.65	-271.91
-33.57	-173.95
-72.02	-143.43
-94.3	-173.65
-96.74	-220.03
-87.89	-244.75
-81.18	-238.34
-84.53	-218.51
-94.3	-205.99
-102.54	-207.82
-103.15	-214.54
-98.57	-215.76
-92.77	-209.05
-89.72	-199.89
-90.03	-193.48
-93.08	-191.65
-96.74	-193.18
-100.1	-194.7
-102.23	-194.4
-102.54	-191.96
-101.01	-188.29
-98.57	-186.46
-97.05	-187.99
-97.96	-191.96
-100.4	-195.31
-102.23	-197.14
-101.93	-195.92
-99.79	-193.18
-98.57	-190.73
-100.4	-189.51
-104.37	-188.9
-107.42	-187.68
-107.42	-185.24
-104.98	-182.5
-102.54	-180.66
-101.93	-180.05
-103.15	-180.36
-104.68	-180.66
-106.2	-180.36
-108.34	-179.44
-112	-179.14
-116.27	-179.44
-120.24	-180.36
-122.68	-181.27
-123.29	-181.88
-122.99	-181.27
-122.38	-178.53
-122.38	-175.78
-124.82	-174.56
-129.09	-176.09
-134.58	-179.75
-139.77	-182.8
-143.13	-183.41
-143.43	-180.97
-140.69	-177
-134.58	-172.73
-125.43	-167.54
-115.05	-159.61
-105.9	-148.32
-99.18	-134.28
-94.3	-119.93
-89.72	-107.12
-82.09	-96.44
-70.8	-86.06
-56.76	-73.55
-43.33	-58.9
-32.65	-43.64
-25.33	-30.52
-19.23	-21.97
-13.43	-17.4
-8.54	-14.34
-6.1	-9.77
-5.8	-2.14
-5.8	7.63
-4.27	15.56
-1.83	18.31
-1.22	15.56
-3.36	10.07
-7.63	6.1
-10.68	5.49
-11.9	7.32
-11.9	9.77
-10.99	11.29
-10.07	11.29
-7.93	9.46
-6.1	5.19
-6.1	-2.14
-9.46	-10.99
-13.43	-18.62
-15.26	-21.97
-13.73	-20.14
-11.6	-15.87
-11.6	-13.12
-14.95	-14.65
-18.31	-20.45
-19.84	-28.08
-19.23	-34.79
-19.23	-38.76
-21.97	-40.28
-25.94	-39.98
-28.99	-37.84
-29.3	-34.48
-28.08	-31.74
-26.25	-29.91
-24.11	-28.69
-21.06	-27.47
-17.7	-26.25
-16.17	-25.02
-18.01	-23.19
-21.36	-19.23
-22.89	-11.29
-19.23	2.14
-11.29	18.92
-3.36	35.71
0.61	49.13
-0.31	58.9
-2.75	65.61
-3.05	72.33
2.44	82.7
13.12	97.66
26.86	116.88
39.67	137.63
48.52	156.86
52.49	172.42
52.49	184.33
51.88	194.4
54.02	202.94
60.42	209.05
69.58	211.18
78.74	209.96
84.23	207.52
84.53	206.6
81.48	205.69
75.99	200.2
67.44	182.8
51.27	149.54
25.33	102.54
-7.32	50.35
-36.32	3.05
-51.88	-32.35
-50.66	-54.02
-39.37	-66.53
-28.99	-75.07
-26.86	-83.01
-32.35	-90.94
-40.28	-97.66
-45.78	-100.71
-46.39	-99.49
-43.95	-95.21
-41.81	-91.25
-41.2	-89.42
-41.81	-90.33
-41.5	-93.08
-40.28	-95.21
-39.67	-95.52
-40.89	-94.91
-44.86	-93.69
-49.13	-93.69
-50.96	-94.91
-49.13	-95.52
-44.56	-94.6
-39.06	-90.64
-34.79	-83.92
-32.04	-72.02
-30.82	-51.88
-31.13	-19.84
-31.13	24.11
-25.63	80.57
-6.1	154.72
35.1	259.4
101.32	417.18
192.57	641.78
309.75	921.02
455.02	1215.82
628.66	1471.25
819.4	1638.18
997.92	1684.57(R)
1123.05	1594.24
1154.48	1365.97
1071.78	1015.63
888.98	582.89
653.99	143.74
424.8	-207.52
244.45	-401.31
124.82	-426.33
47.3	-336
-12.51	-221.56
-64.7	-158.08
-103.15	-166.02
-120.24	-211.79
-118.1	-248.72
-108.95	-253.3
-105.29	-233.76
-110.17	-213.01
-118.1	-206.6
-123.6	-213.01
-124.21	-220.64
-120.85	-222.47
-116.88	-218.51
-113.22	-213.01
-111.69	-209.35
-113.22	-207.82
-116.88	-208.74
-120.85	-210.88
-123.6	-213.32
-124.51	-214.54
-123.9	-213.93
-122.68	-211.18
-122.07	-207.21
-122.38	-202.64
-122.99	-199.58
-123.29	-198.06
-122.68	-197.75
-121.46	-197.75
-120.24	-197.14
-120.24	-195.62
-122.07	-193.48
-124.82	-190.73
-126.65	-187.38
-126.95	-183.72
-126.04	-180.97
-125.73	-179.75
-126.95	-180.66
-128.48	-181.58
-129.7	-180.97
-129.7	-179.14
-130	-176.7
-131.84	-175.48
-135.19	-176.39
-138.55	-178.53
-140.69	-180.97
-141.91	-182.5
-143.43	-182.8
-146.48	-181.88
-149.84	-180.36
-152.28	-179.14
-152.89	-178.53
-152.89	-178.53
-152.89	-178.22
-153.2	-176.39
-152.28	-171.81
-148.93	-164.49
-142.52	-155.33
-133.97	-145.87
-124.82	-136.41
-115.66	-126.04
-105.59	-113.83
-94.91	-98.27
-84.53	-80.57
-74.16	-62.56
-63.17	-45.78
-52.19	-31.74
-41.81	-20.45
-33.26	-11.9
-27.47	-5.8
-23.5	0
-18.92	7.32
-13.43	16.48
-8.54	25.94
-6.71	33.57
-9.16	39.06
-13.73	43.03
-16.48	46.08
-14.95	48.22
-9.77	47.61
-4.88	44.56
-3.97	39.98
-7.02	36.32
-10.99	34.48
-12.82	34.18
-11.6	34.18
-8.85	32.96
-7.02	31.13
-6.41	28.99
-7.02	27.16
-7.32	25.33
-7.93	23.19
-8.24	20.14
-9.46	16.78
-12.21	13.12
-16.78	9.77
-22.58	7.02
-27.77	4.58
-28.99	3.05
-26.55	2.44
-21.97	2.44
-18.92	3.66
-19.53	5.49
-22.28	6.71
-25.33	7.02
-26.86	6.41
-27.47	6.1
-27.47	6.71
-27.16	7.93
-26.55	10.07
-25.02	14.34
-21.97	22.89
-16.17	37.23
-8.24	56.15
0.61	74.77
6.41	89.42
7.32	97.66
4.27	101.62
2.14	105.59
5.8	113.53
16.48	127.87
31.43	148.32
46.08	170.59
56.46	190.12
60.73	203.25
61.65	209.66
61.04	212.4
61.65	214.23
64.7	216.67
70.5	219.73
77.51	222.17
82.4	224.3
82.7	225.22
78.74	221.86
70.5	208.44
56.46	180.36
34.79	137.63
6.71	86.36
-21.97	36.62
-41.81	-2.44
-47.91	-28.69
-43.03	-44.56
-35.71	-54.63
-34.48	-61.95
-39.67	-67.75
-46.69	-70.8
-50.05	-72.33
-48.52	-72.94
-44.25	-75.38
-41.81	-79.35
-43.33	-84.23
-46.69	-86.36
-48.83	-84.84
-47.91	-79.65
-44.56	-74.16
-41.81	-72.02
-41.81	-74.46
-44.25	-79.04
-46.39	-82.7
-46.39	-82.09
-44.25	-78.43
-41.81	-73.55
-40.28	-70.19
-39.98	-66.83
-39.98	-58.29
-40.89	-37.54
-41.5	-1.83
-39.67	47
-28.99	108.64
-2.14	188.29
47.91	302.12
123.9	473.63
228.58	710.75
364.07	994.26
531.62	1279.6
725.4	1510.93
923.77	1641.85
1091.61	1645.51(R)
1187.74	1510.93
1178.59	1243.59
1054.38	866.39
841.98	429.38
594.18	15.87
367.74	-284.42
199.28	-417.48
90.94	-393.37
19.84	-281.68
-36.62	-175.17
-84.53	-135.5
-117.19	-162.66
-130	-213.62
-126.65	-244.45
-118.41	-240.78
-114.14	-217.9
-115.97	-199.28
-119.93	-195.62
-121.77	-201.42
-121.15	-206.3
-119.32	-205.38
-119.02	-201.11
-121.15	-196.84
-124.51	-194.4
-127.26	-194.4
-127.56	-196.23
-125.12	-198.67
-122.38	-200.2
-120.85	-199.28
-121.15	-196.84
-122.38	-194.09
-123.6	-192.26
-124.51	-191.96
-124.82	-192.57
-125.12	-193.18
-126.34	-193.18
-127.87	-193.18
-129.09	-192.57
-129.7	-191.65
-129.7	-189.82
-128.78	-187.38
-126.95	-184.63
-124.21	-181.58
-122.07	-178.83
-122.38	-177.31
-126.65	-177.31
-133.97	-178.22
-140.38	-179.14
-141.91	-178.22
-137.94	-176.09
-132.14	-174.26
-129.09	-173.34
-131.84	-172.73
-139.16	-171.51
-147.09	-169.98
-151.98	-170.29
-153.5	-174.26
-153.81	-180.66
-154.11	-186.77
-155.64	-188.9
-157.17	-185.55
-157.17	-178.53
-154.72	-170.9
-150.45	-165.1
-144.96	-161.44
-139.47	-157.78
-133.06	-151.06
-125.43	-139.47
-115.97	-123.6
-104.68	-106.51
-94.3	-91.25
-85.45	-78.43
-77.51	-67.14
-68.36	-55.24
-57.07	-41.81
-44.56	-28.38
-33.57	-16.17
-24.72	-6.71
-18.92	1.22
-14.95	8.24
-12.21	14.65
-11.6	19.84
-13.12	23.5
-15.26	25.63
-17.09	27.16
-17.4	28.99
-16.17	30.21
-14.65	30.21
-14.34	28.38
-14.34	25.33
-13.73	21.36
-12.21	17.09
-10.07	12.82
-8.54	10.07
-8.24	10.07
-9.46	12.21
-11.29	14.34
-14.34	13.73
-18.01	7.93
-21.06	-0.31
-22.28	-7.63
-21.67	-11.29
-21.06	-11.9
-21.36	-11.9
-23.19	-12.82
-24.11	-14.04
-22.89	-14.95
-20.14	-16.17
-18.92	-18.92
-21.97	-24.41
-27.47	-30.82
-32.65	-34.48
-34.79	-32.65
-33.26	-25.94
-30.21	-18.01
-28.69	-12.51
-29.3	-11.29
-31.43	-13.12
-32.65	-15.87
-30.52	-17.4
-25.02	-16.48
-17.7	-12.21
-10.07	-3.05
-4.58	11.6
-1.53	29.6
-0.61	46.69
-0.92	59.2
-0.61	66.22
2.44	70.8
10.07	77.51
21.36	90.03
34.18	108.64
44.56	129.7
52.19	150.45
57.37	168.15
61.34	181.58
64.39	189.51
66.83	192.87
68.97	192.26
72.33	190.73
77.21	189.51
81.79	189.82
83.31	190.73
81.48	189.82
75.99	183.11
65.31	165.1
46.69	133.36
19.53	89.42
-10.99	40.28
-36.62	-4.88
-49.74	-39.98
-50.35	-63.78
-45.47	-77.82
-41.5	-84.84
-40.59	-87.89
-40.89	-89.11
-40.89	-91.25
-41.5	-95.21
-44.56	-100.4
-49.44	-104.68
-53.41	-106.51
-54.02	-105.59
-51.88	-102.54
-49.44	-99.49
-48.52	-97.35
-48.83	-96.44
-49.13	-95.83
-47.91	-94.6
-45.47	-92.16
-43.03	-89.11
-42.11	-87.28
-42.11	-87.59
-42.42	-88.81
-41.2	-88.5
-38.45	-80.87
-36.32	-61.65
-35.71	-28.69
-35.4	14.95
-29.6	68.05
-9.16	134.89
33.87	228.27
102.84	369.57
198.67	573.73
322.57	833.74
477.6	1116.03
664.98	1371.46
872.19	1551.21
1069.03	1619.57(R)
1212.16	1556.7
1258.85	1356.51
1183.17	1030.58
994.26	613.71
740.05	175.78
483.09	-188.6
275.27	-401
135.5	-438.84
48.22	-347.6
-14.65	-219.12
-66.83	-140.08
-104.98	-140.38
-123.6	-191.35
-123.9	-240.48
-117.19	-254.52
-114.75	-235.6
-119.02	-208.74
-124.82	-194.4
-126.65	-196.23
-124.51	-205.08
-122.07	-209.96
-122.38	-208.13
-125.43	-201.72
-128.48	-195.01
-128.78	-191.35
-126.95	-193.18
-123.9	-198.36
-122.07	-202.94
-121.77	-203.25
-122.38	-199.28
-123.9	-193.79
-126.04	-191.04
-128.48	-191.65
-130.62	-194.4
-131.84	-195.92
-130.92	-195.31
-128.78	-192.87
-126.34	-189.82
-125.43	-186.77
-126.65	-182.8
-129.09	-177.61
-130.62	-171.81
-131.23	-167.54
-130.92	-167.24
-131.23	-171.2
-132.45	-176.7
-133.06	-180.36
-132.75	-179.14
-132.14	-174.26
-132.45	-167.54
-134.28	-162.35
-137.02	-160.22
-140.08	-161.44
-142.82	-165.71
-145.87	-170.9
-149.23	-175.17
-152.89	-177
-155.64	-175.48
-157.78	-172.73
-160.22	-170.59
-162.66	-171.2
-164.49	-173.65
-164.49	-175.48
-161.13	-172.73
-154.11	-164.49
-144.35	-151.67
-132.75	-138.24
-122.07	-126.65
-113.53	-116.58
-108.03	-106.51
-103.45	-94.6
-97.05	-81.48
-86.67	-68.66
-73.24	-57.07
-59.81	-46.39
-48.52	-35.71
-39.06	-24.11
-30.82	-13.73
-22.89	-5.49
-16.48	-0.31
-13.12	3.36
-12.51	7.63
-13.43	13.43
-14.04	20.14
-13.12	25.94
-10.68	28.69
-7.32	28.99
-5.49	27.77
-5.8	27.16
-7.93	27.77
-10.07	27.77
-10.38	25.33
-8.54	20.45
-6.1	14.95
-5.19	10.99
-6.1	9.16
-8.54	8.24
-11.29	6.41
-12.82	2.75
-12.82	-1.53
-11.29	-4.27
-8.54	-4.27
-7.02	-2.75
-8.85	-2.44
-14.04	-6.1
-20.45	-12.82
-23.8	-18.62
-22.28	-18.31
-18.01	-11.29
-15.56	-2.44
-18.31	0.92
-24.41	-3.66
-29.6	-12.82
-30.21	-20.45
-26.25	-21.97
-20.75	-18.31
-16.48	-13.12
-14.04	-8.85
-12.51	-6.1
-11.9	-3.97
-11.9	-2.44
-13.43	-1.22
-14.65	2.75
-13.43	12.82
-7.93	31.43
1.22	54.63
10.99	74.77
17.4	84.53
18.01	83.31
15.26	78.74
14.65	80.26
20.45	94.6
33.57	119.02
48.83	146.48
60.73	169.68
67.14	185.85
70.19	197.14
73.85	206.3
79.65	214.84
87.28	219.73
94.3	219.12
98.57	213.01
100.1	204.47
98.88	198.97
95.52	197.14
89.11	194.09
77.21	180.36
56.15	148.62
26.55	101.01
-5.8	48.22
-32.04	1.83
-44.25	-30.82
-42.72	-52.19
-34.79	-67.14
-28.38	-78.43
-27.47	-85.75
-31.43	-87.89
-36.01	-85.75
-38.45	-83.62
-38.76	-84.53
-38.15	-88.81
-38.76	-93.38
-41.81	-94.91
-45.47	-92.16
-48.22	-87.89
-47.61	-86.36
-43.95	-89.42
-39.37	-96.13
-36.32	-101.62
-35.71	-102.54
-36.93	-98.27
-38.76	-91.55
-39.06	-86.36
-35.71	-83.31
-29.3	-81.18
-23.5	-75.38
-21.36	-61.04
-24.41	-34.18
-26.55	4.58
-17.09	55.54
14.34	121.77
71.11	212.4
151.37	346.98
253.91	543.21
381.47	797.42
539.25	1078.49
727.23	1335.14
931.4	1513.67
1120.91	1579.59(R)
1254.58	1518.55
1292.72	1329.04
1209.41	1022.34
1011.35	626.83
744.93	203.86
476.07	-155.64
261.23	-372.92
123.6	-421.14
44.86	-341.49
-8.54	-222.17
-55.85	-145.87
-95.83	-143.43
-118.71	-188.9
-122.68	-236.21
-116.58	-255.13
-111.69	-245.97
-113.53	-227.05
-119.32	-215.15
-123.29	-213.32
-123.9	-215.45
-122.38	-217.59
-120.24	-217.9
-119.63	-217.29
-120.54	-216.06
-122.07	-214.54
-122.68	-214.54
-122.07	-216.67
-121.46	-219.12
-121.77	-218.81
-123.29	-215.15
-124.82	-210.57
-125.43	-208.74
-125.12	-211.18
-124.51	-215.76
-122.68	-218.51
-119.93	-217.9
-116.27	-215.15
-113.53	-212.4
-113.22	-210.57
-116.27	-209.66
-120.85	-209.66
-123.9	-209.35
-124.82	-207.82
-123.9	-205.38
-122.99	-202.03
-122.99	-198.97
-124.82	-198.67
-128.78	-202.94
-134.28	-210.57
-139.47	-217.9
-141.3	-220.64
-139.47	-217.29
-135.8	-209.35
-134.28	-202.33
-136.72	-200.2
-142.21	-203.86
-148.01	-209.96
-151.98	-214.84
-154.72	-217.29
-157.17	-216.98
-159.3	-215.76
-159.91	-213.93
-159	-210.57
-156.25	-205.08
-153.2	-198.06
-149.23	-191.65
-143.74	-187.38
-135.5	-184.33
-125.12	-180.36
-113.22	-172.12
-100.71	-157.47
-87.89	-136.72
-74.77	-114.14
-62.87	-93.99
-52.8	-79.65
-45.17	-70.5
-39.98	-63.78
-35.1	-57.07
-29.91	-49.13
-23.5	-39.98
-17.09	-32.04
-10.99	-26.25
-7.32	-23.19
-6.41	-22.28
-9.16	-22.89
-14.04	-24.11
-17.7	-24.72
-18.62	-23.8
-16.48	-21.97
-13.43	-20.45
-11.9	-21.06
-12.82	-25.02
-14.34	-31.13
-14.95	-37.84
-15.26	-42.42
-15.56	-43.33
-17.4	-42.11
-19.53	-40.28
-20.45	-40.28
-19.23	-41.81
-16.17	-43.64
-13.43	-44.56
-12.51	-46.08
-13.73	-49.13
-15.87	-53.71
-18.31	-58.9
-20.75	-61.34
-22.89	-60.12
-25.02	-56.76
-26.25	-53.1
-26.25	-51.88
-25.02	-53.41
-24.11	-56.15
-23.8	-58.29
-24.11	-58.59
-24.11	-57.07
-22.58	-53.71
-19.53	-50.35
-16.78	-48.22
-15.87	-47.91
-16.78	-49.44
-18.62	-51.88
-20.45	-51.57
-20.45	-46.08
-18.92	-32.65
-15.26	-12.51
-9.46	9.77
-2.14	28.38
4.58	39.37
8.85	43.64
9.77	45.78
9.16	50.96
10.68	63.17
17.4	82.4
28.99	105.59
42.72	129.09
54.32	148.32
60.42	161.74
61.34	168.46
61.04	170.59
63.17	171.51
69.58	171.81
78.74	171.51
85.45	170.29
85.45	168.46
78.74	166.02
67.44	160.22
54.63	146.79
38.76	120.24
17.09	79.96
-8.85	31.43
-32.35	-16.78
-46.39	-56.76
-47.61	-84.23
-41.2	-99.79
-36.01	-107.12
-37.54	-109.86
-43.64	-111.08
-50.35	-113.22
-53.1	-116.58
-51.88	-120.24
-49.44	-122.99
-48.83	-123.29
-51.27	-122.38
-55.54	-121.15
-58.29	-120.24
-57.37	-119.63
-52.8	-119.32
-47.3	-119.02
-44.86	-118.41
-46.69	-117.49
-51.88	-116.27
-56.76	-114.44
-57.07	-112.92
-52.19	-112.3
-44.25	-111.69
-36.62	-107.42
-32.96	-93.99
-34.18	-67.44
-37.84	-28.99
-37.23	18.62
-23.5	78.74
12.21	162.96
74.77	292.97
165.41	489.81
285.03	751.65
432.74	1048.58
607.61	1328.74
800.17	1538.39
988.77	1638.79(R)
1138.92	1609.5
1210.94	1443.48
1171.88	1147.46
1016.85	747.99
779.42	303.34
520.63	-96.13
299.38	-362.55
146.79	-455.63
55.24	-401
-3.97	-281.07
-53.1	-186.46
-94.6	-165.41
-121.46	-203.55
-130	-253.91
-126.34	-278.32
-119.93	-270.39
-117.8	-248.11
-119.93	-232.54
-124.21	-230.1
-128.48	-234.38
-132.14	-236.21
-133.97	-233.46
-133.67	-228.88
-131.53	-225.83
-128.48	-225.22
-126.04	-226.14
-124.21	-227.05
-122.99	-226.14
-122.38	-222.47
-122.38	-217.59
-123.9	-213.93
-126.34	-213.01
-129.39	-214.84
-131.84	-217.59
-132.75	-218.51
-132.75	-216.98
-132.45	-213.93
-133.36	-210.88
-134.89	-208.44
-135.5	-205.69
-133.97	-201.72
-130.31	-195.92
-126.34	-189.82
-123.6	-186.16
-123.29	-185.24
-125.12	-187.38
-128.17	-190.12
-132.45	-191.65
-136.72	-191.04
-139.77	-188.9
-140.99	-186.46
-139.77	-185.24
-138.85	-185.24
-140.08	-185.85
-144.04	-186.46
-148.62	-188.29
-151.98	-191.35
-153.5	-195.62
-154.11	-199.58
-155.03	-201.72
-157.17	-200.5
-159.61	-196.23
-160.22	-190.12
-158.39	-183.41
-154.42	-177
-150.45	-172.12
-146.18	-168.46
-141.6	-164.18
-133.97	-156.86
-122.99	-144.96
-108.95	-128.48
-94.6	-110.47
-82.09	-93.99
-71.72	-81.18
-62.87	-71.11
-55.24	-61.95
-48.83	-51.57
-43.64	-39.98
-38.76	-27.77
-32.65	-15.87
-24.72	-4.58
-16.17	5.49
-10.68	12.82
-9.77	16.48
-13.73	16.17
-19.53	14.04
-22.89	11.9
-21.97	11.6
-18.31	12.21
-14.34	13.43
-12.82	13.43
-14.34	12.51
-17.4	10.38
-19.84	8.24
-20.45	7.02
-19.23	6.71
-17.4	7.63
-15.56	7.93
-14.34	6.41
-13.12	3.05
-13.43	-2.44
-14.95	-8.85
-17.7	-14.34
-20.14	-18.31
-21.67	-19.84
-22.28	-19.53
-22.89	-18.01
-24.41	-17.09
-26.25	-17.4
-27.16	-18.92
-26.55	-20.45
-25.94	-21.36
-25.63	-21.36
-25.63	-19.84
-25.94	-18.31
-25.63	-16.48
-26.55	-15.87
-28.08	-16.48
-29.3	-18.01
-27.77	-19.23
-22.58	-18.62
-31.74	-33.87
-28.38	-24.41
-27.47	-15.87
-28.99	-11.6
-31.43	-13.43
-32.35	-20.14
-30.82	-26.86
-27.77	-28.38
-25.02	-21.36
-23.5	-3.66
-20.45	24.72
-11.9	60.42
5.8	92.16
32.65	101.93
66.53	72.94
104.68	-1.22
148.32	-112.3
201.11	-242.31
266.11	-377.2
339.66	-515.14
411.38	-664.67
468.75	-837.1
499.57	-1031.19
495.91	-1228.33
450.74	-1398.93
357.67	-1513.98
214.23	-1561.58
30.21	-1555.48
-167.24	-1524.66
-341.49	-1494.14
-463.26	-1463.32
-522.46	-1403.81
-534.06	-1287.23
-523.38	-1110.23
-509.95	-908.2
-496.83	-733.95
-476.99	-622.56
-443.12	-569.76
-395.51	-544.43
-343.02	-517.88
-294.8	-480.35
-253.6	-438.23
-218.2	-397.34
-186.16	-349.73
-154.72	-281.37
-122.68	-182.5
-86.67	-53.41
-46.08	94.3
-2.14	243.53
36.93	374.76
62.26	469.67
70.19	518.8
66.22	530.09
61.04	524.9
62.26	525.21
70.8	540.77
79.96	566.41
84.23	588.99
81.79	599.06
75.07	594.48
65.92	577.09
51.88	550.23
31.43	517.58
7.93	483.7
-11.6	454.1
-20.45	433.65
-18.31	423.89
-11.9	424.5
-7.63	432.43
-7.32	445.56
-8.54	460.51
-7.93	476.68
-4.27	494.38
0.31	514.83
5.19	539.25
9.77	567.32
14.95	597.53
20.45	627.75
25.33	656.13
30.21	681.76
36.62	705.87
45.47	731.51
56.15	759.89
66.83	789.79
76.29	818.48
84.53	842.59
92.77	861.82
102.23	877.69
112.92	891.42
123.6	902.71
132.45	910.03
137.94	910.64
140.38	903.63
140.69	889.28
141.3	869.14
143.13	844.42
144.04	815.43
142.52	782.47
136.41	744.93
126.95	703.74
116.27	659.79
107.42	615.23
100.71	570.98
94.6	527.95
87.28	485.23
76.9	440.98
64.09	394.9
49.44	346.98
35.4	299.99
23.8	256.35
15.26	217.29
9.77	182.19
5.49	148.32
0.92	115.05
-5.19	83.01
-12.51	54.93
-18.31	33.57
-21.06	18.92
-21.36	8.24
-21.67	-1.83
-24.11	-14.04
-29.6	-28.38
-35.71	-43.03
-39.98	-54.32
-40.89	-60.42
-39.67	-61.95
-39.06	-61.65
-40.59	-62.56
-43.95	-66.53
-47.61	-72.94
-49.74	-79.35
-50.05	-83.92
-49.13	-86.98
-48.52	-88.81
-48.83	-90.33
-50.05	-90.94
-52.19	-91.25
-54.93	-92.16
-57.37	-94.3
-58.59	-97.66
-58.59	-100.4
-57.98	-101.32
-57.98	-99.49
-58.9	-97.66
-61.04	-97.66
-62.56	-101.01
-62.26	-106.2
-60.73	-110.78
-59.81	-113.53
-60.73	-113.53
-63.48	-112
-66.22	-109.56
-66.83	-106.81
-65.31	-104.06
-62.56	-101.62
-61.04	-100.4
-61.34	-100.1
-63.17	-99.79
-65	-99.79
-65.61	-100.71
-64.7	-103.45
-62.56	-107.73
-60.42	-112
-58.59	-113.83
-57.68	-112.61
-57.68	-108.95
-58.29	-104.98
-58.59	-101.01
-58.59	-97.96
-58.59	-96.44
-59.51	-98.27
-61.34	-103.76
-62.87	-110.17
-62.87	-112.61
-61.34	-108.64
-59.2	-99.79
-57.07	-92.16
-56.46	-90.03
-56.15	-93.38
-56.15	-97.66
-55.54	-98.27
-54.32	-95.52
-54.02	-93.08
-54.63	-93.69
-55.54	-96.44
-55.24	-97.35
-53.41	-94.3
-51.27	-87.59
-50.96	-81.79
-52.19	-80.26
-53.71	-83.92
-53.71	-89.11
-52.19	-93.08
-50.66	-93.69
-50.96	-92.16
-52.19	-90.33
-52.8	-88.81
-51.88	-88.2
-49.44	-87.28
-46.69	-85.14
-44.86	-82.09
-43.95	-79.04
-43.95	-77.51
-45.47	-78.13
-47.3	-80.87
-49.13	-83.31
-49.44	-84.53
-48.83	-84.23
-48.22	-83.31
-47	-83.01
-45.17	-83.62
-42.72	-84.84
-41.2	-85.45
-42.72	-83.92
-46.08	-80.87
-48.83	-77.21
-47.91	-73.85
-43.95	-72.33
-39.67	-72.94
-38.76	-74.46
-40.89	-75.99
-44.56	-78.13
-46.39	-80.57
-46.08	-83.62
-44.56	-84.84
-43.64	-83.62
-43.33	-79.04
-42.72	-72.94
-41.5	-65.92
-38.76	-57.68
-34.48	-47.3
-28.69	-33.26
-21.97	-16.48
-15.87	1.53
-11.9	16.78
-10.68	27.16
-11.29	31.43
-11.29	32.04
-9.46	33.57
-3.97	41.5
5.19	58.59
17.4	83.62
30.82	112
41.81	137.63
47.61	155.03
48.83	162.96
48.22	162.66
50.05	158.69
55.54	155.94
63.17	157.78
69.89	164.18
72.02	171.2
68.97	171.81
59.51	159.3
42.11	130
17.09	85.45
-11.9	32.96
-38.15	-17.4
-54.63	-58.59
-58.59	-87.28
-54.32	-105.29
-49.74	-116.27
-50.05	-123.9
-54.63	-129.7
-58.9	-133.97
-58.9	-136.72
-55.54	-137.94
-52.49	-137.94
-52.8	-137.02
-56.46	-135.19
-61.04	-133.36
-64.09	-132.75
-64.39	-133.67
-63.17	-135.8
-61.65	-137.94
-59.51	-139.16
-57.68	-138.85
-56.15	-138.24
-55.85	-137.94
-57.07	-137.63
-58.29	-136.11
-57.37	-130.92
-53.1	-119.32
-46.39	-99.49
-37.54	-73.55
-24.41	-45.17
-2.75	-13.73
32.04	31.43
82.09	115.36
148.62	270.08
237.12	509.34
355.22	810.24
508.42	1116.03
688.78	1358.03
869.14	1484.38(R)
1010.44	1473.08
1073	1325.07
1029.05	1053.47
879.21	683.59
658.57	267.64
421.14	-107.73
219.73	-356.14
82.7	-437.32
3.36	-381.16
-43.64	-271.61
-78.74	-195.01
-107.42	-188.9
-125.12	-230.1
-130.31	-272.22
-128.17	-284.12
-126.34	-267.64
-129.7	-244.75
-136.72	-234.68
-142.21	-239.87
-143.43	-250.55
-140.69	-256.35
-135.5	-254.52
-130.92	-248.11
-128.17	-241.39
-128.17	-237.12
-130.31	-234.99
-133.06	-233.76
-136.41	-232.24
-140.08	-230.41
-142.82	-228.27
-143.74	-227.36
-142.52	-227.97
-140.38	-229.49
-139.16	-230.71
-139.16	-230.71
-140.38	-229.49
-141.3	-226.44
-140.99	-222.17
-139.16	-217.59
-137.02	-212.71
-135.5	-208.44
-135.5	-205.69
-136.41	-203.86
-137.94	-203.55
-139.16	-204.47
-139.77	-205.69
-140.38	-206.91
-141.6	-207.82
-144.04	-208.44
-147.4	-208.44
-151.06	-208.44
-153.81	-208.44
-155.64	-208.13
-157.47	-207.21
-160.52	-205.99
-165.41	-205.08
-171.2	-204.16
-176.09	-202.33
-179.14	-199.58
-180.97	-196.23
-181.88	-194.09
-182.5	-193.79
-183.11	-194.4
-182.5	-193.79
-180.66	-189.51
-177.61	-181.58
-173.95	-172.12
-168.76	-164.18
-162.66	-159.3
-154.72	-156.56
-144.04	-151.98
-131.53	-141.91
-117.49	-126.34
-102.54	-106.81
-87.89	-87.59
-74.46	-71.41
-62.26	-58.9
-51.57	-48.83
-40.89	-39.06
-29.6	-29.3
-17.7	-20.14
-6.71	-13.12
2.14	-7.93
7.63	-3.97
9.46	0.31
8.54	5.19
6.41	10.38
4.58	14.95
3.97	18.31
4.27	20.45
5.19	21.06
5.49	19.84
5.19	17.09
4.58	12.82
3.66	8.85
2.75	5.8
1.22	3.66
-0.31	1.83
-1.22	-0.31
-1.83	-3.05
-2.75	-6.1
-4.58	-8.85
-7.32	-11.29
-10.38	-13.73
-12.51	-16.78
-13.12	-19.84
-13.43	-22.89
-14.34	-25.33
-16.48	-26.86
-18.92	-27.47
-21.36	-28.08
-22.58	-28.69
-24.11	-29.6
-25.94	-30.21
-28.08	-30.52
-29.6	-30.52
-29.3	-29.6
-27.47	-27.16
-25.02	-22.58
-21.97	-13.73
-18.01	-0.61
-13.43	15.56
-8.85	30.82
-6.71	42.42
-7.63	49.44
-9.16	54.32
-7.32	60.42
0.61	71.11
14.04	87.28
28.38	106.51
38.76	126.34
43.64	144.04
44.56	158.08
45.78	168.46
50.35	176.7
58.59	183.11
68.05	187.07
75.99	187.99
79.04	186.77
76.29	185.55
69.27	183.11
58.59	174.87
43.64	153.5
22.28	115.05
-5.49	63.78
-34.18	10.07
-55.85	-35.1
-64.7	-66.83
-61.65	-86.06
-54.93	-98.57
-52.19	-108.03
-54.93	-115.05
-60.12	-118.71
-64.09	-119.02
-65	-117.19
-64.09	-115.36
-63.48	-115.66
-61.95	-117.8
-59.81	-121.46
-57.68	-123.9
-57.68	-124.21
-60.42	-122.07
-64.7	-118.71
-68.05	-117.19
-68.05	-118.41
-65.92	-121.77
-63.78	-124.82
-63.48	-125.43
-64.39	-122.99
-64.7	-119.63
-62.56	-116.27
-57.68	-111.08
-52.19	-99.18
-48.22	-75.99
-45.17	-41.2
-38.15	0
-18.62	46.39
21.06	104.68
84.84	195.31
173.65	345.15
289	563.66
434.57	830.08
611.88	1096.8
811.46	1306.76
1005.25	1415.10(R)
1152.34	1398.62
1211.85	1251.83
1156.31	984.19
988.77	620.42
747.07	213.93
490.11	-149.54
273.13	-385.74
122.99	-454.71
32.04	-383
-27.77	-252.38
-75.07	-153.81
-111.69	-132.45
-131.23	-171.51
-133.36	-222.17
-127.26	-245.36
-123.29	-235.6
-125.73	-212.4
-131.23	-196.84
-135.8	-196.53
-137.94	-203.25
-138.85	-207.21
-139.16	-204.77
-137.94	-198.06
-135.19	-191.35
-132.14	-187.38
-130.31	-186.46
-129.7	-187.38
-130.62	-187.99
-131.53	-187.07
-133.06	-185.24
-135.19	-183.11
-138.55	-180.97
-141.6	-179.14
-142.82	-177.31
-140.69	-175.48
-136.72	-175.17
-133.06	-176.09
-131.84	-177.92
-132.75	-178.53
-134.28	-176.7
-133.97	-172.12
-131.23	-166.63
-128.17	-161.44
-126.65	-158.69
-127.87	-158.39
-131.53	-158.69
-135.19	-159.3
-137.63	-159.3
-139.16	-159
-140.38	-159.3
-142.52	-160.83
-144.96	-162.66
-147.4	-164.49
-149.54	-164.79
-151.06	-163.27
-152.59	-160.52
-154.11	-157.47
-155.33	-154.42
-157.17	-152.28
-159.61	-151.06
-162.66	-151.67
-166.02	-153.81
-168.46	-156.56
-169.07	-157.47
-167.54	-155.33
-163.88	-149.54
-157.78	-140.99
-150.45	-131.53
-142.52	-122.38
-134.28	-113.22
-125.12	-103.15
-115.05	-91.25
-103.76	-77.82
-91.25	-63.48
-78.74	-49.44
-67.44	-36.62
-57.37	-25.63
-48.83	-16.48
-43.03	-8.85
-39.37	-3.05
-37.54	0.92
-36.32	4.58
-35.1	7.63
-33.57	10.07
-31.74	12.21
-29.91	13.43
-27.77	14.34
-25.94	15.26
-25.33	16.17
-27.16	16.48
-31.13	15.87
-35.1	14.04
-36.62	10.68
-35.1	6.41
-32.35	1.53
-30.21	-3.05
-29.6	-6.41
-30.52	-8.24
-32.04	-8.85
-34.79	-9.77
-37.84	-11.9
-40.89	-14.95
-42.72	-18.62
-42.72	-21.67
-41.81	-22.89
-40.59	-22.58
-39.67	-21.97
-38.76	-21.97
-37.84	-23.19
-37.23	-25.63
-37.23	-28.38
-38.76	-30.52
-40.89	-30.82
-43.33	-29.6
-44.86	-27.47
-45.47	-24.72
-45.47	-22.89
-45.78	-21.36
-45.78	-19.23
-45.17	-14.95
-41.5	-6.71
-34.18	5.8
-25.02	21.36
-17.4	37.23
-14.04	50.96
-15.56	61.34
-18.31	68.66
-17.4	75.68
-8.54	85.75
6.41	101.32
23.19	122.99
37.23	148.62
45.47	172.73
49.74	190.73
52.49	199.58
55.54	201.11
59.81	198.97
64.7	197.14
69.27	197.14
72.63	198.67
73.24	200.2
72.02	200.81
68.05	197.75
60.12	185.85
45.17	159.3
20.75	116.88
-9.16	65
-36.93	15.26
-54.02	-22.89
-59.2	-46.08
-57.07	-57.98
-54.63	-65.92
-55.54	-73.55
-58.29	-81.18
-59.81	-86.06
-60.12	-86.98
-60.12	-85.45
-61.65	-83.62
-64.39	-83.92
-66.83	-86.67
-67.75	-90.33
-67.44	-92.47
-66.22	-91.55
-64.7	-88.5
-63.48	-85.14
-62.87	-82.4
-62.26	-79.96
-61.34	-76.6
-59.81	-73.24
-57.98	-72.33
-56.76	-75.07
-55.85	-80.87
-53.41	-84.84
-49.44	-79.04
-44.56	-57.98
-41.2	-21.67
-37.23	23.5
-26.25	72.63
2.75	127.26
59.2	200.81
146.48	319.82
265.5	504.15
415.95	746.15
596.31	1010.13
801.7	1242.07
1012.57	1391.6
1194.76	1430.05(R)
1306.15	1347.05
1307.07	1144.1
1179.2	833.44
943.3	447.08
657.04	53.1
388.79	-257.57
189.21	-415.34
68.97	-409.55
2.14	-296.94
-44.56	-171.81
-86.06	-108.64
-119.02	-120.85
-136.11	-168.76
-137.94	-205.08
-133.36	-208.13
-131.53	-189.21
-135.19	-172.42
-140.99	-171.2
-144.35	-181.27
-144.04	-189.51
-140.69	-188.9
-136.72	-180.97
-134.28	-171.2
-135.19	-164.79
-138.24	-164.18
-141.3	-168.15
-142.52	-173.34
-141.3	-175.17
-138.24	-171.81
-134.89	-165.1
-131.84	-157.78
-129.7	-152.59
-129.09	-150.15
-130.31	-148.62
-133.06	-147.71
-136.72	-148.62
-140.38	-152.59
-142.21	-158.69
-142.21	-164.18
-140.08	-165.1
-137.33	-159.61
-134.58	-148.93
-133.06	-137.94
-133.36	-131.84
-136.41	-133.06
-140.69	-139.47
-144.04	-146.18
-144.96	-149.84
-144.65	-147.71
-144.96	-141.3
-147.09	-133.36
-150.15	-126.34
-152.89	-122.99
-154.42	-123.6
-155.03	-128.17
-156.25	-133.67
-157.47	-138.24
-159.61	-140.38
-163.57	-140.69
-169.07	-140.38
-174.26	-140.08
-177	-139.47
-176.7	-137.63
-173.65	-133.97
-169.98	-128.17
-166.93	-120.54
-162.96	-112
-155.94	-103.15
-144.96	-94.3
-130.92	-85.45
-115.05	-75.99
-100.4	-65.31
-87.89	-53.71
-77.51	-41.81
-68.05	-30.82
-57.98	-21.06
-47.61	-13.43
-37.54	-7.63
-30.21	-3.97
-26.25	-1.53
-25.02	1.53
-23.8	7.02
-20.75	14.65
-15.56	22.58
-10.68	27.16
-8.24	28.08
-9.46	26.55
-12.82	25.02
-16.48	23.8
-18.62	22.28
-18.92	19.53
-17.4	15.56
-15.26	11.9
-13.73	9.46
-12.82	9.16
-12.21	11.29
-12.51	14.34
-13.12	17.09
-14.65	15.87
-17.7	9.16
-20.75	-1.83
-22.28	-12.82
-21.67	-19.23
-19.53	-18.92
-18.01	-14.34
-18.01	-10.38
-20.45	-9.46
-23.8	-11.29
-25.94	-13.12
-26.25	-12.82
-24.72	-10.68
-23.19	-8.85
-23.8	-8.85
-26.86	-11.29
-29.91	-15.26
-30.82	-18.62
-28.08	-18.62
-22.89	-13.73
-17.4	-3.36
-13.43	11.6
-11.29	29.91
-9.16	48.52
-5.8	64.7
-0.92	76.6
4.88	82.4
10.07	83.31
15.56	84.53
21.97	91.55
30.52	108.34
41.5	134.28
52.8	164.49
62.87	191.96
69.89	210.57
72.94	219.73
73.55	220.95
72.94	218.2
74.46	215.15
79.35	213.62
86.36	215.45
92.77	220.03
95.21	224.3
92.16	222.17
80.87	205.38
59.2	169.98
28.38	117.49
-6.71	59.2
-35.71	7.93
-50.05	-27.16
-48.52	-45.78
-39.98	-54.63
-33.87	-61.04
-36.01	-67.75
-43.03	-74.16
-49.13	-77.51
-50.05	-78.43
-47	-79.04
-43.33	-81.79
-41.5	-85.75
-41.2	-89.11
-42.11	-89.72
-43.95	-88.2
-46.69	-86.06
-49.13	-84.84
-50.05	-84.23
-48.52	-83.92
-46.39	-84.53
-45.78	-86.67
-47.61	-90.03
-49.74	-92.47
-49.13	-91.55
-45.17	-86.67
-39.37	-78.74
-35.1	-68.36
-33.87	-52.49
-33.26	-27.47
-26.55	7.93
-5.49	53.1
36.32	111.39
100.71	192.57
187.68	319.82
299.07	510.86
439.76	759.58
612.79	1030.58
813.6	1270.45
1018.68	1427.31
1189.58	1470.34(R)
1284.48	1387.94
1269.23	1183.17
1132.2	869.75
898.13	481.87
621.95	88.2
367.13	-223.08
179.44	-384.52
67.14	-386.96
4.27	-286.56
-40.89	-173.95
-81.18	-119.93
-112.61	-135.8
-128.17	-184.63
-128.17	-220.95
-123.6	-224.3
-122.68	-205.69
-126.95	-187.68
-131.84	-184.33
-133.36	-191.65
-132.14	-199.58
-130	-201.42
-128.48	-198.67
-128.48	-195.62
-129.7	-194.4
-132.14	-194.09
-133.97	-192.87
-133.06	-190.43
-128.78	-187.07
-122.68	-183.72
-117.19	-180.36
-116.27	-177.61
-120.24	-174.56
-127.87	-172.73
-134.28	-172.73
-136.11	-174.56
-133.67	-177.61
-129.09	-179.14
-125.43	-177.92
-124.21	-173.95
-124.21	-169.07
-124.51	-165.41
-125.12	-163.88
-126.34	-164.49
-128.78	-166.63
-131.23	-168.76
-133.06	-169.68
-133.06	-169.37
-130.92	-168.15
-128.17	-166.63
-126.65	-166.32
-127.87	-166.93
-132.75	-168.46
-140.38	-170.29
-148.62	-171.81
-154.42	-171.81
-157.17	-169.68
-157.78	-166.02
-158.08	-162.66
-159.61	-161.74
-162.35	-163.57
-165.1	-166.32
-166.63	-167.54
-166.02	-165.71
-163.57	-161.44
-160.22	-156.25
-155.33	-151.06
-149.54	-145.57
-142.21	-138.55
-133.97	-129.39
-125.43	-117.8
-116.88	-105.29
-107.12	-92.77
-95.83	-81.48
-82.7	-70.8
-69.27	-59.51
-56.15	-47
-44.86	-32.96
-36.01	-20.45
-29.91	-12.21
-26.55	-8.85
-25.33	-8.54
-24.41	-7.93
-22.28	-5.19
-19.84	-0.31
-18.92	3.97
-20.14	5.8
-21.67	5.49
-21.97	4.58
-20.75	4.58
-20.45	5.49
-22.58	5.8
-25.63	4.88
-27.16	1.83
-25.33	-2.44
-21.36	-6.71
-19.23	-9.77
-20.75	-11.6
-24.72	-11.9
-28.38	-11.9
-29.3	-13.73
-28.38	-17.7
-27.77	-22.89
-28.08	-27.47
-28.99	-29.91
-29.3	-29.3
-28.69	-27.16
-28.38	-25.63
-29.6	-26.25
-32.04	-28.99
-35.1	-32.65
-37.23	-35.4
-37.54	-35.71
-36.32	-32.65
-34.18	-28.38
-32.65	-25.02
-32.96	-23.8
-34.18	-24.11
-34.79	-24.41
-34.48	-23.8
-32.96	-21.97
-32.04	-19.23
-31.74	-14.65
-30.21	-6.41
-26.25	7.63
-19.23	25.63
-12.21	43.95
-8.24	58.29
-7.63	66.22
-8.54	70.19
-7.63	74.46
-2.44	84.53
6.71	101.93
18.01	125.12
29.91	149.84
40.28	171.51
47.61	186.77
51.57	195.62
52.8	200.2
53.71	202.33
56.46	203.55
62.56	203.86
70.5	203.86
76.29	204.47
76.9	204.47
70.5	200.5
56.46	187.07
34.18	159.61
5.49	117.49
-25.63	67.75
-51.27	19.84
-64.39	-19.53
-64.39	-47.91
-57.07	-67.75
-51.27	-81.48
-52.19	-89.72
-57.98	-92.77
-63.48	-91.86
-65.31	-89.11
-63.78	-87.59
-62.26	-88.81
-62.87	-92.77
-65	-97.96
-67.44	-102.23
-68.05	-103.15
-66.83	-100.71
-65	-95.83
-64.09	-91.86
-65.31	-90.33
-67.14	-91.86
-68.36	-94.3
-68.05	-95.52
-65.92	-93.38
-63.48	-88.5
-60.73	-83.01
-57.68	-78.43
-54.32	-73.55
-52.19	-63.48
-52.19	-42.11
-52.8	-9.16
-46.69	34.18
-24.11	88.81
22.28	163.57
95.21	278.32
194.09	455.32
319.21	696.11
473.94	973.21
658.57	1236.27
860.9	1430.36
1051.64	1515.20(R)
1189.88	1471.56
1235.05	1297
1161.19	1004.64
973.82	624.08
717.16	214.54
455.02	-138.24
242.31	-356.14
102.54	-409.55
21.06	-332.64
-32.65	-209.35
-77.51	-123.9
-112.3	-112
-130.62	-151.06
-132.45	-193.79
-127.56	-208.13
-126.34	-195.01
-132.45	-175.17
-140.08	-167.24
-144.04	-172.12
-143.13	-179.44
-139.77	-180.66
-137.63	-175.78
-137.33	-169.98
-138.55	-167.24
-140.08	-167.85
-140.38	-169.98
-139.47	-170.9
-137.63	-169.07
-135.8	-165.1
-133.67	-160.52
-131.84	-157.17
-130.31	-155.64
-130	-155.33
-131.84	-155.64
-134.58	-155.64
-138.24	-154.42
-140.99	-152.28
-142.21	-150.15
-142.21	-148.93
-141.3	-148.01
-139.77	-146.18
-138.24	-142.82
-136.72	-138.55
-136.11	-134.89
-136.41	-133.67
-138.24	-133.67
-141.3	-134.58
-144.04	-134.89
-145.87	-134.89
-146.79	-134.58
-147.71	-134.28
-148.93	-133.67
-151.37	-133.06
-154.11	-131.84
-157.17	-130
-160.52	-128.17
-164.49	-127.26
-169.07	-127.87
-172.73	-129.7
-175.17	-131.53
-175.78	-132.14
-174.26	-130.62
-172.12	-127.87
-169.68	-124.82
-166.93	-121.77
-162.96	-117.49
-158.08	-111.39
-151.67	-103.15
-144.35	-93.08
-135.8	-81.48
-125.43	-68.66
-112.92	-55.24
-98.57	-41.81
-83.92	-28.38
-70.8	-15.56
-59.51	-3.05
-51.57	8.24
-45.78	17.7
-41.5	24.72
-38.45	29.91
-35.4	34.79
-31.74	39.98
-27.47	45.17
-23.19	49.13
-19.23	51.57
-16.17	52.8
-15.56	53.1
-17.7	53.71
-22.58	53.71
-28.08	52.8
-31.74	50.66
-31.74	47
-28.08	43.03
-23.5	39.67
-19.84	38.15
-18.31	38.45
-18.62	39.98
-20.14	40.28
-22.58	38.76
-26.25	35.1
-29.6	31.13
-31.13	28.69
-29.6	28.08
-27.47	28.69
-26.86	28.08
-29.6	25.94
-34.48	22.58
-38.76	18.92
-40.59	16.17
-39.37	15.26
-37.23	15.26
-35.71	14.95
-36.01	13.73
-38.15	11.6
-40.59	9.16
-42.11	7.93
-41.81	7.93
-40.28	9.16
-38.45	10.99
-36.62	13.73
-34.79	16.78
-33.26	19.23
-32.35	19.84
-32.04	18.62
-32.96	15.87
-34.79	13.43
-36.32	13.12
-36.32	14.95
-34.48	19.84
-31.13	28.38
-27.47	40.89
-22.89	57.68
-18.62	76.29
-14.65	92.47
-11.9	103.45
-10.68	108.34
-10.07	109.86
-8.24	112.61
-2.75	120.24
6.71	135.8
19.23	159
32.65	185.85
45.17	211.18
55.24	230.1
62.26	240.48
66.83	244.45
70.19	245.36
72.94	245.97
75.68	246.58
77.21	246.28
76.9	244.75
75.38	241.39
72.33	234.68
64.09	219.73
46.39	191.96
17.7	150.45
-17.4	100.71
-48.52	52.49
-65.61	13.43
-65.92	-13.43
-57.07	-30.52
-49.74	-41.2
-49.74	-48.22
-55.85	-52.49
-62.26	-54.32
-64.09	-54.32
-61.65	-53.41
-58.29	-52.19
-56.76	-51.88
-56.76	-52.8
-57.07	-54.93
-56.76	-57.37
-57.07	-58.59
-58.9	-58.29
-61.34	-56.15
-62.56	-53.41
-61.95	-50.96
-60.73	-49.13
-61.04	-48.83
-63.48	-49.74
-65.92	-50.66
-65.61	-50.96
-61.95	-49.74
-55.85	-45.78
-51.27	-36.01
-49.44	-17.4
-49.13	10.68
-44.25	46.08
-26.55	89.11
10.99	146.48
72.02	234.38
156.25	375.67
265.2	582.58
403.75	839.23
576.78	1105.65
780.64	1328.74
992.74	1462.1
1172.79	1479.80(R)
1274.41	1372.68
1259.16	1145.32
1115.72	813.6
874.02	417.48
595.4	30.52
345.46	-258.18
165.1	-388.79
56.15	-361.63
-9.46	-242.31
-59.81	-126.04
-101.93	-78.43
-129.7	-101.93
-138.24	-152.28
-133.06	-183.72
-126.04	-180.97
-125.43	-159
-130.92	-141.91
-136.41	-140.08
-138.24	-147.4
-137.33	-152.28
-135.5	-150.76
-134.89	-145.26
-135.19	-140.99
-136.41	-139.77
-137.02	-140.69
-136.72	-140.69
-134.89	-138.24
-132.14	-133.36
-130.31	-128.17
-130.31	-125.12
-131.53	-123.9
-133.06	-122.99
-133.36	-120.85
-132.75	-118.41
-131.53	-116.58
-131.53	-115.97
-132.75	-116.27
-134.89	-116.88
-136.41	-116.88
-137.02	-115.66
-136.11	-113.22
-134.89	-109.56
-134.28	-105.29
-134.58	-101.62
-134.58	-99.18
-134.58	-99.18
-134.58	-101.32
-136.41	-104.68
-140.38	-108.64
-144.96	-111.69
-148.93	-112.92
-151.06	-112
-151.37	-109.25
-151.37	-105.9
-151.98	-103.15
-153.2	-101.62
-155.33	-101.32
-157.78	-101.93
-159.91	-102.23
-161.44	-101.62
-162.66	-100.1
-163.88	-97.35
-165.1	-93.69
-164.79	-89.42
-162.96	-84.84
-158.39	-80.57
-151.98	-75.99
-143.74	-69.89
-134.28	-61.34
-122.99	-50.05
-111.08	-37.84
-99.79	-25.94
-89.72	-14.95
-80.26	-3.97
-70.8	8.24
-60.12	21.97
-47.91	35.71
-36.01	47
-25.94	54.63
-20.45	57.98
-19.23	58.59
-20.45	58.9
-21.36	59.51
-19.84	61.34
-17.09	62.87
-14.95	63.78
-15.56	64.39
-17.7	65.31
-19.53	66.53
-19.84	67.75
-18.62	67.44
-17.09	65
-15.56	61.34
-14.34	57.07
-13.43	53.41
-13.73	50.35
-15.26	48.22
-17.7	46.69
-19.53	45.47
-20.14	44.56
-19.53	43.64
-19.23	41.2
-19.53	37.84
-20.45	33.26
-22.28	28.69
-24.11	25.02
-25.94	23.19
-28.69	23.19
-31.74	23.8
-33.87	23.5
-33.26	22.58
-30.52	22.28
-26.86	22.89
-25.94	24.11
-28.99	24.72
-35.1	24.41
-39.98	23.5
-40.59	23.19
-36.62	23.19
-31.13	23.19
-26.86	21.67
-25.02	19.23
-25.63	16.17
-27.77	13.73
-29.91	13.43
-31.43	15.87
-30.21	21.67
-26.25	31.13
-20.45	43.95
-14.95	59.2
-11.29	75.07
-9.16	89.11
-7.63	99.79
-5.49	107.12
-2.44	112.3
2.14	117.49
9.16	126.04
19.23	139.47
32.04	158.39
45.78	180.97
57.07	203.25
63.78	221.56
65.31	233.76
65.31	239.87
68.05	242.92
75.38	245.97
86.06	249.63
95.83	252.99
100.1	254.52
97.66	253.6
90.03	248.11
78.43	234.99
60.73	209.05
35.1	168.46
3.36	118.1
-27.77	66.83
-49.13	24.41
-56.46	-5.19
-53.1	-23.19
-47.61	-33.57
-46.08	-40.28
-48.52	-44.25
-51.57	-46.39
-52.19	-46.69
-50.66	-46.39
-49.13	-46.69
-49.44	-47.61
-51.57	-49.44
-54.32	-50.96
-55.85	-50.66
-54.93	-48.22
-52.19	-44.25
-48.83	-40.28
-46.69	-39.06
-47.61	-40.89
-50.35	-45.47
-53.71	-49.74
-55.85	-51.57
-55.24	-50.05
-51.88	-45.78
-47.61	-40.59
-43.03	-35.4
-38.45	-28.69
-35.1	-16.48
-33.26	4.27
-31.43	32.96
-24.11	66.83
-3.05	109.56
39.98	171.81
110.78	275.57
212.1	442.5
345.76	672.61
514.53	936.28
716.25	1184.39
936.28	1365.66
1142.58	1445.62(R)
1291.81	1410.52
1341.55	1257.93
1264.04	995.48
1064.76	642.09
789.49	246.58
507.2	-106.81
278.32	-333.86
130.62	-394.59
47	-316.77
-8.54	-185.85
-58.29	-93.69
-101.93	-80.87
-126.95	-124.82
-129.39	-172.12
-118.71	-186.77
-109.25	-167.85
-110.47	-140.99
-120.24	-128.48
-132.14	-134.28
-140.08	-146.79
-141.6	-153.2
-136.41	-149.23
-127.56	-139.77
-118.71	-131.23
-114.44	-128.48
-115.36	-131.84
-119.32	-137.63
-122.68	-140.99
-123.9	-138.24
-122.68	-131.84
-120.54	-126.04
-119.63	-123.9
-119.93	-125.73
-120.54	-128.17
-119.93	-127.87
-117.49	-123.6
-114.75	-117.19
-113.53	-113.22
-115.05	-113.22
-119.02	-116.58
-123.29	-119.32
-125.73	-118.1
-126.34	-112.92
-125.12	-105.59
-123.6	-99.49
-123.29	-96.74
-124.21	-97.66
-126.34	-101.01
-128.78	-104.37
-130	-105.9
-130	-104.68
-130.92	-101.32
-133.67	-97.96
-138.24	-95.83
-143.74	-95.52
-148.01	-96.74
-149.84	-98.27
-149.84	-98.27
-148.93	-96.13
-148.62	-92.47
-149.84	-88.81
-152.28	-87.59
-155.33	-89.11
-157.47	-90.33
-156.86	-88.81
-152.89	-82.7
-146.18	-73.85
-137.33	-65.61
-126.65	-60.12
-114.75	-55.85
-101.62	-50.66
-88.5	-42.42
-76.6	-31.13
-65.92	-18.01
-55.54	-5.49
-43.95	5.8
-32.04	14.95
-20.45	22.89
-10.99	29.91
-5.19	36.62
-3.05	43.33
-2.75	49.13
-2.44	53.71
-0.92	56.76
2.44	58.59
6.1	58.59
7.63	57.37
7.32	55.54
6.71	54.63
6.71	55.54
7.63	58.29
8.24	60.42
6.1	60.12
1.83	57.07
-1.83	51.57
-1.53	46.08
2.44	42.42
7.63	40.59
10.99	39.67
10.38	37.54
7.63	32.96
4.58	27.47
2.14	23.19
0.92	22.28
0.31	24.41
-0.61	27.77
-1.53	29.3
-2.75	27.47
-4.88	22.89
-7.32	18.01
-8.54	15.56
-7.63	16.17
-4.88	18.92
-1.53	21.67
1.22	23.19
2.44	22.58
2.14	21.36
0.92	21.36
-0.31	23.19
-0.92	25.63
-0.61	26.55
0	25.33
0.92	22.28
1.53	20.45
2.75	22.89
5.8	32.04
10.99	47
17.7	65.61
24.72	83.62
29.3	97.96
30.52	106.2
29.3	109.56
28.38	110.78
31.13	113.83
39.37	123.9
52.19	144.04
66.83	172.73
79.96	203.25
89.42	227.97
94.6	241.09
97.05	242.61
98.88	238.95
102.23	236.51
107.73	238.95
114.75	244.45
120.54	248.41
122.38	249.33
119.63	245.97
112.61	238.65
101.01	224
82.4	197.14
54.93	155.03
21.97	101.01
-8.24	44.56
-25.33	-3.36
-26.25	-34.79
-17.7	-49.74
-10.68	-52.8
-11.29	-50.66
-18.31	-49.13
-24.41	-50.05
-24.41	-53.1
-19.23	-56.76
-14.34	-60.12
-14.34	-63.17
-19.53	-65.61
-25.94	-67.44
-28.99	-67.14
-28.08	-64.7
-24.11	-61.34
-20.14	-60.42
-18.62	-63.78
-18.92	-70.5
-20.75	-75.99
-23.19	-76.9
-25.33	-72.02
-26.55	-64.09
-25.94	-57.68
-22.28	-55.54
-16.17	-55.24
-9.16	-49.74
-3.36	-31.13
1.53	2.44
11.9	46.08
37.54	94.6
86.06	150.76
159.61	231.02
256.35	364.99
377.2	570.07
526.43	831.91
708.01	1105.04
914.31	1329.04
1119.38	1452.64(R)
1280.82	1451.72
1353.15	1324.46
1301.57	1082.15
1121.52	747.07
851.44	361.33
559.39	-2.14
313.42	-262.45
150.76	-370.48
63.48	-337.22
14.65	-230.41
-26.55	-136.41
-66.22	-108.34
-95.52	-140.38
-106.81	-189.21
-103.45	-216.06
-97.05	-212.1
-96.13	-193.79
-100.71	-182.5
-107.42	-186.46
-112	-197.75
-114.14	-204.77
-114.14	-203.25
-113.53	-195.92
-113.22	-187.38
-113.53	-181.88
-113.22	-179.75
-111.39	-180.97
-107.12	-183.11
-103.45	-185.24
-102.54	-186.77
-104.98	-187.07
-109.86	-186.16
-113.83	-184.02
-115.05	-180.66
-113.53	-177.92
-110.17	-176.7
-107.42	-177
-106.2	-178.53
-107.12	-180.05
-109.25	-180.05
-111.39	-178.22
-112.3	-174.87
-111.69	-171.2
-110.78	-168.76
-111.08	-168.15
-113.53	-168.46
-117.49	-168.46
-120.54	-167.54
-121.15	-166.02
-119.63	-165.1
-118.41	-165.71
-119.32	-167.85
-122.68	-170.59
-127.26	-172.73
-131.84	-173.34
-134.28	-172.42
-135.5	-171.51
-135.8	-171.2
-137.02	-173.03
-139.77	-176.09
-144.35	-179.75
-149.54	-181.88
-153.2	-181.88
-153.5	-179.44
-150.45	-174.26
-144.35	-166.63
-136.41	-156.86
-128.78	-146.48
-121.77	-137.02
-114.75	-129.39
-105.59	-121.77
-93.99	-112.61
-80.26	-100.71
-66.83	-86.36
-55.24	-71.72
-45.78	-58.9
-37.54	-47.61
-29.91	-37.54
-23.19	-28.99
-17.7	-21.67
-12.82	-15.56
-8.85	-10.38
-5.19	-5.19
-1.83	-1.22
0	0.92
0.31	0.61
-1.22	-1.53
-3.97	-3.97
-7.02	-5.8
-8.85	-6.71
-8.85	-8.54
-6.41	-11.6
-2.75	-16.48
-0.61	-21.67
-1.53	-25.94
-5.8	-28.08
-10.99	-28.99
-14.95	-28.99
-15.56	-28.99
-13.12	-29.3
-9.46	-30.21
-7.32	-32.04
-7.93	-34.48
-11.29	-37.23
-15.56	-40.28
-18.31	-42.72
-18.62	-44.86
-15.87	-46.39
-12.21	-47.91
-9.46	-47.91
-8.24	-46.08
-9.16	-43.33
-10.68	-40.89
-12.51	-39.98
-14.65	-40.28
-16.48	-40.89
-17.7	-40.28
-17.7	-39.06
-16.78	-38.76
-15.87	-40.89
-15.87	-45.47
	
