19.23	-192.26
10.68	-136.11
-7.32	-107.42
-14.95	-102.54
-9.46	-108.95
0.31	-113.22
6.1	-109.25
5.8	-98.88
2.75	-88.81
1.22	-82.7
3.36	-80.87
6.71	-79.35
9.16	-75.99
10.07	-70.5
9.77	-64.09
9.77	-48.83
11.29	-42.42
13.73	-34.48
15.87	-27.16
16.48	-21.97
14.95	-18.31
11.9	-14.34
10.07	-8.54
10.68	-0.31
13.12	8.85
15.26	17.7
14.95	27.16
12.51	38.45
10.68	52.8
10.07	68.66
10.38	83.31
10.07	96.13
7.93	107.73
4.27	120.24
0.61	133.97
-1.53	149.54
-2.14	164.79
-1.53	178.83
-0.31	191.04
0.31	201.11
0.31	209.05
0.92	215.45
2.44	220.64
5.49	224.91
9.16	227.05
12.21	224.91
14.04	217.29
16.48	204.77
20.14	188.9
25.63	171.2
30.21	151.37
32.35	129.09
31.74	104.98
29.91	82.4
29.6	64.39
30.82	51.88
32.96	42.42
33.26	32.35
31.74	19.84
29.3	6.41
27.47	-5.8
26.55	-14.34
25.33	-19.53
22.89	-22.89
20.14	-25.02
18.31	-26.25
20.14	-24.41
26.86	-18.92
37.23	-7.63
48.83	11.6
59.51	40.89
67.14	80.26
72.94	126.65
78.74	173.95
85.14	216.98
91.86	253.91
97.35	288.09
99.49	321.66
95.83	354
86.67	379.64
74.16	393.98
61.65	398.56
53.41	401.31
52.8	411.38
59.51	432.43
71.11	460.82
83.01	485.53
90.33	490.42
90.03	462.04
80.57	393.37
62.56	289.92
38.76	172.12
13.73	65.61
-6.1	-10.07
-17.4	-52.49
-20.75	-74.16
-20.75	-90.94
-21.97	-110.47
-26.86	-130
-33.87	-143.13
-39.06	-147.4
-40.28	-146.18
-38.76	-144.96
-36.32	-146.18
-35.1	-149.23
-36.62	-153.2
-39.67	-157.78
-41.81	-162.05
-41.5	-164.79
-38.15	-162.96
-33.57	-154.42
-28.99	-134.89
-26.55	-101.62
-26.55	-52.19
-25.63	8.85
-19.84	73.55
-7.63	134.89
6.71	197.45
11.29	283.81
-6.1	416.26
-47.61	581.97
-97.05	710.75
-132.45	695.19
-145.26	457.15
-154.11	16.17
-190.12	-499.27
-272.52	-914
-379.33	-1107.48(R)
-458.07	-1073.91
-460.21	-898.74
-376.59	-690
-243.23	-515.14
-115.97	-387.57
-36.93	-292.05
-13.12	-218.51
-23.19	-168.46
-38.45	-145.57
-41.2	-144.96
-30.82	-152.28
-17.09	-154.42
-8.54	-146.48
-7.32	-132.14
-10.68	-118.1
-13.43	-108.95
-13.73	-104.68
-11.9	-102.23
-9.77	-99.18
-7.93	-95.21
-7.02	-89.72
-5.8	-82.4
-4.58	-73.24
-2.75	-63.48
-1.53	-55.85
-1.22	-52.49
-1.53	-52.49
-1.83	-52.8
-2.44	-49.44
-3.36	-41.2
-4.88	-29.6
-7.02	-17.7
-8.85	-7.63
-9.16	-0.31
-8.54	5.8
-7.32	13.12
-6.71	23.8
-7.02	37.84
-8.54	54.32
-10.99	70.8
-13.73	86.36
-16.17	101.01
-18.92	115.66
-21.06	131.53
-22.58	148.01
-22.28	164.18
-20.75	178.83
-18.92	190.73
-18.01	199.58
-17.7	206.3
-17.09	211.18
-14.04	214.54
-9.46	216.67
-5.19	215.45
-2.75	208.74
-2.14	195.62
-1.22	176.09
1.53	152.89
5.49	129.39
9.46	108.03
10.99	89.11
10.99	72.02
10.38	55.54
10.07	39.67
10.07	24.72
9.46	12.21
8.54	2.75
7.32	-4.27
6.71	-9.77
6.71	-15.26
7.02	-21.36
7.02	-27.16
7.02	-32.04
7.02	-35.1
7.63	-36.32
10.07	-35.1
14.95	-28.99
22.28	-16.17
31.43	6.71
39.98	40.59
46.39	82.4
50.66	126.65
55.54	168.15
62.56	205.99
72.02	243.23
81.48	283.51
86.67	325.62
85.45	362.24
77.82	386.05
67.14	394.29
57.07	393.37
51.27	395.51
51.57	410.16
57.98	437.93
68.05	470.58
77.21	491.03
79.96	481.57
73.24	430.6
57.07	339.36
35.1	223.08
12.51	108.03
-5.8	17.7
-17.7	-37.54
-22.58	-65.31
-23.5	-81.48
-24.11	-97.96
-26.86	-116.27
-31.74	-131.23
-36.62	-138.24
-38.76	-138.85
-38.45	-138.55
-36.32	-140.69
-34.18	-145.57
-32.65	-149.84
-32.35	-151.98
-32.65	-152.59
-33.57	-152.59
-34.48	-152.28
-34.79	-149.54
-33.26	-139.16
-30.82	-114.75
-28.69	-71.11
-26.25	-10.99
-21.67	55.54
-12.82	116.88
-0.61	169.37
7.63	229.19
-0.31	327.15
-32.04	476.38
-80.26	638.43
-122.99	718.69
-143.74	613.71
-148.32	284.42
-164.79	-196.84
-223.39	-671.08
-323.49	-981.45
-423.28	-1062.01(R)
-466.31	-954.28
-421.14	-759.58
-303.65	-569.15
-164.49	-422.06
-57.07	-315.55
-5.49	-234.68
-1.22	-173.95
-16.78	-135.5
-28.08	-119.93
-26.55	-119.93
-16.17	-123.9
-6.1	-122.99
-1.83	-114.75
-2.14	-103.15
-3.66	-93.08
-3.66	-87.59
-2.14	-85.14
0.61	-83.31
3.36	-79.35
5.8	-73.85
7.63	-68.36
8.24	-64.7
7.63	-62.26
6.41	-59.81
5.49	-55.54
5.49	-48.22
6.41	-39.67
7.02	-31.13
7.02	-24.41
5.8	-18.92
4.88	-13.12
4.58	-5.19
5.49	6.41
7.02	19.84
8.24	33.26
8.24	45.17
6.41	54.93
3.97	64.7
1.83	76.9
0.61	92.47
1.22	111.08
2.14	130
2.14	147.71
0.92	162.66
-0.92	176.09
-2.44	188.9
-3.36	201.72
-3.36	213.93
-2.75	224.91
-2.44	233.46
-1.83	239.56
-1.22	242.92
0.31	243.84
3.36	241.39
7.32	233.76
11.9	220.34
16.48	201.72
20.75	179.75
23.8	156.86
26.25	134.89
28.08	114.44
29.3	95.21
30.52	78.13
31.43	63.48
30.82	51.27
29.3	41.2
27.47	32.35
25.94	24.41
25.02	18.01
25.33	12.82
26.25	9.46
27.16	7.32
27.47	5.19
27.16	3.05
27.77	1.22
30.52	1.53
36.62	7.63
46.39	24.11
58.29	54.63
70.5	97.35
80.26	145.87
87.28	191.96
93.08	230.41
99.18	263.06
106.51	296.02
112.61	333.56
114.14	372.31
108.03	404.36
95.52	422.97
81.18	427.25
69.89	426.64
65.92	432.43
69.89	450.44
79.04	479.13
89.42	507.51
96.44	518.8
95.52	497.13
84.84	434.27
65.61	335.08
42.11	217.59
19.53	108.34
3.05	27.47
-5.49	-19.23
-6.71	-42.42
-5.19	-58.29
-5.19	-76.6
-8.85	-97.66
-15.56	-113.83
-22.28	-121.15
-25.33	-121.77
-24.41	-120.85
-20.75	-121.77
-17.09	-124.51
-14.95	-127.26
-14.95	-128.17
-16.17	-127.87
-16.48	-127.26
-14.95	-125.43
-11.6	-119.93
-8.24	-105.59
-6.71	-75.68
-7.93	-27.16
-9.46	36.32
-6.1	103.76
4.88	164.79
19.84	221.25
26.86	292.36
10.07	405.88
-34.79	562.13
-91.55	707.09
-133.67	738.22
-146.79	562.74
-145.87	171.2
-166.63	-335.08
-236.82	-784
-343.32	-1033.94
-434.88	-1049.50(R)
-456.54	-898.74
-387.57	-692.14
-256.35	-510.86
-119.93	-378.72
-25.94	-281.68
9.46	-203.55
3.66	-142.52
-13.43	-103.76
-20.75	-89.11
-15.26	-89.72
-4.27	-93.99
2.75	-93.38
3.05	-86.67
0.31	-77.51
-0.92	-70.19
1.53	-65
6.1	-60.42
10.07	-54.32
12.21	-47
12.82	-39.37
12.51	-32.96
12.21	-28.38
12.51	-24.72
12.51	-20.75
13.12	-16.17
13.73	-10.68
14.95	-4.27
17.09	2.75
19.23	10.38
20.75	18.31
20.45	25.63
19.23	32.96
17.09	39.98
15.26	47.3
13.73	56.15
12.82	66.83
12.82	80.57
13.43	97.05
14.65	115.05
14.95	133.67
13.12	150.76
9.77	166.02
6.41	180.36
4.88	194.4
4.88	208.74
5.8	222.17
6.41	233.76
6.71	243.23
7.02	251.16
8.54	258.18
10.68	263.37
12.51	265.81
13.73	264.28
15.56	258.18
18.62	247.8
23.5	232.85
28.38	213.62
32.04	191.04
33.87	166.63
34.48	142.82
34.48	121.46
34.48	102.84
33.87	86.06
33.26	70.8
32.96	57.68
33.57	47.3
35.1	39.37
36.62	33.57
36.93	28.38
36.62	23.5
36.32	19.53
36.32	16.78
36.01	15.56
36.01	14.65
36.32	14.04
38.76	15.87
44.56	23.5
53.1	41.81
63.17	73.55
72.94	116.88
80.87	165.71
87.59	211.79
94.6	251.77
102.84	286.56
110.17	321.96
113.22	359.5
109.86	395.81
101.01	422.67
90.03	434.88
80.26	433.65
73.85	429.99
72.63	435.18
76.6	454.41
85.75	483.7
96.74	508.73
103.76	510.56
101.01	474.85
86.67	397.03
64.39	287.78
40.59	170.29
20.75	70.5
7.63	3.36
0	-32.35
-4.58	-50.96
-8.24	-66.83
-11.9	-85.45
-16.17	-103.15
-19.53	-113.83
-21.36	-116.27
-20.45	-114.75
-18.01	-113.83
-15.87	-115.05
-14.65	-116.88
-13.73	-118.1
-13.12	-118.41
-12.51	-118.71
-11.9	-119.32
-10.68	-118.1
-8.85	-111.69
-6.1	-93.38
-3.66	-57.98
-2.44	-4.27
0.31	61.34
7.32	126.65
21.06	184.63
35.4	242
37.23	324.4
13.73	454.1
-35.4	614.62
-90.33	730.59
-126.34	695.19
-136.72	438.23
-142.21	-10.99
-178.22	-517.27
-262.45	-907.9
-369.57	-1073.00(R)
-443.42	-1016.85
-436.4	-830.08
-343.02	-619.2
-202.94	-447.69
-75.07	-324.1
1.22	-232.24
20.45	-160.52
7.63	-110.47
-8.24	-84.84
8.24	-85.45
13.73	-80.87
12.82	-71.72
9.46	-62.87
7.93	-57.07
8.54	-53.71
10.38	-50.66
12.21	-45.47
13.73	-38.76
15.26	-32.04
15.87	-26.86
15.56	-22.58
14.34	-18.31
13.12	-13.12
12.51	-6.71
13.12	-0.31
14.65	5.8
16.48	10.99
17.4	16.17
16.78	21.36
15.87	28.08
14.95	36.93
15.26	47.91
15.87	59.51
14.95	71.11
12.51	81.79
9.16	93.08
7.02	105.9
7.32	121.77
8.54	139.16
9.77	157.17
9.46	174.87
7.93	191.65
6.41	207.82
5.19	222.78
4.27	235.6
3.05	245.67
1.83	252.99
1.83	259.4
3.36	264.59
5.8	268.86
8.85	270.39
11.29	267.03
13.43	257.87
15.87	243.53
19.23	225.83
23.5	205.99
28.38	185.85
32.65	166.02
35.71	146.79
37.84	128.78
38.45	111.69
38.15	95.52
37.23	80.87
35.71	68.05
34.18	57.68
33.26	50.05
33.57	44.56
33.57	39.67
33.57	34.79
33.26	30.21
32.35	26.86
31.74	24.72
31.43	24.41
31.74	24.41
33.57	25.63
38.15	31.13
46.69	46.69
57.68	75.38
68.66	115.97
77.51	162.35
83.62	207.52
90.03	247.19
97.96	283.51
107.73	321.66
115.97	363.46
118.41	404.66
113.53	437.32
101.93	453.8
87.59	453.8
75.38	447.69
70.19	448
73.55	463.26
84.53	491.33
98.27	520.32
108.64	531.31
109.86	508.73
100.71	444.95
83.01	345.15
60.12	228.58
37.84	119.93
19.84	39.37
8.54	-7.93
3.36	-32.04
1.22	-48.83
-0.61	-67.44
-4.58	-87.28
-9.16	-101.32
-11.9	-105.9
-11.6	-103.76
-9.46	-101.62
-8.24	-103.76
-8.85	-109.86
-10.68	-115.66
-11.29	-118.41
-10.38	-118.41
-8.85	-116.88
-8.54	-114.75
-9.77	-110.47
-11.9	-98.57
-14.04	-71.72
-14.34	-25.63
-11.29	36.32
-2.14	102.84
14.34	164.18
32.35	220.03
39.67	290.53
21.67	401.31
-24.72	551.15
-83.01	683.9
-126.34	696.72
-141.6	501.1
-142.52	93.38
-164.49	-418.7
-234.38	-861.82
-340.27	-1098.02(R)
-431.52	-1097.11
-453.19	-932.01
-384.83	-714.72
-253.6	-526.12
-115.97	-388.49
-21.36	-288.7
14.65	-210.88
8.24	-153.81
-10.38	-122.38
-19.23	-114.44
-13.73	-118.41
-1.22	-121.77
8.24	-117.19
10.38	-107.42
7.63	-97.66
5.49	-91.55
6.41	-89.42
9.77	-87.89
13.12	-84.84
15.26	-80.26
16.48	-75.07
17.4	-70.5
17.4	-66.83
17.09	-63.48
16.48	-60.12
15.87	-56.46
15.56	-52.19
15.87	-47.61
16.48	-42.72
16.48	-36.93
16.17	-30.82
15.26	-24.41
14.04	-18.31
12.21	-12.21
10.68	-5.19
9.46	3.05
9.16	13.12
9.77	25.02
10.68	37.54
11.29	50.66
10.38	63.48
8.54	76.29
6.1	89.11
4.27	102.54
3.66	116.88
4.27	131.53
4.88	145.26
4.88	156.56
4.58	164.49
5.19	169.98
7.02	173.03
9.77	174.56
12.51	173.65
14.34	169.37
15.56	160.52
16.78	147.09
19.23	129.39
22.58	108.64
26.25	86.36
29.91	63.48
32.65	40.89
34.79	19.23
35.71	-1.83
35.4	-21.67
34.18	-39.37
32.96	-54.63
32.35	-67.14
32.35	-77.51
32.96	-86.06
33.87	-93.08
34.79	-99.49
34.79	-105.59
33.87	-111.69
32.96	-117.19
32.65	-121.15
33.26	-122.99
35.1	-122.68
38.76	-119.32
45.17	-109.56
54.93	-89.42
66.53	-57.07
77.82	-14.65
86.06	30.21
91.25	70.8
95.83	104.37
101.62	133.67
108.03	165.1
112.61	201.11
112.3	236.51
105.9	262.76
94.91	273.13
82.09	269.17
72.02	262.15
68.97	264.59
74.16	281.98
86.67	309.75
100.71	332.64
108.64	331.12
105.9	291.14
91.55	209.66
68.97	99.49
44.56	-16.17
23.5	-112.92
8.85	-177.61
1.22	-212.71
-1.53	-232.85
-2.75	-251.46
-5.49	-272.83
-10.38	-292.66
-16.17	-304.87
-20.14	-308.53
-20.75	-308.23
-18.92	-309.45
-16.48	-314.33
-15.26	-321.66
-15.56	-328.06
-16.17	-332.64
-16.78	-334.78
-16.48	-335.69
-15.26	-333.56
-13.73	-326.23
-12.82	-308.23
-12.82	-273.44
-13.43	-221.25
-10.68	-158.39
-1.22	-95.83
15.26	-41.5
29.91	12.21
28.69	91.25
0	216.37
-52.8	368.35
-107.42	469.67
-140.08	413.82
-146.48	136.72
-151.06	-324.1
-189.82	-827.03
-277.4	-1200.87
-384.52	-1344.60(R)
-454.41	-1271.06
-441.28	-1076.66
-343.32	-866.7
-202.94	-700.07
-77.21	-581.67
-3.66	-492.55
14.95	-422.36
2.44	-373.23
-12.82	-348.82
-15.56	-345.15
-7.02	-350.65
3.36	-354
7.93	-350.04
6.71	-341.49
4.27	-332.03
4.88	-324.71
8.85	-319.82
13.12	-316.16
15.87	-312.81
16.17	-309.45
15.87	-305.48
15.87	-301.51
15.87	-296.94
16.17	-292.66
15.87	-288.39
15.26	-283.81
14.65	-278.93
14.04	-273.44
13.43	-267.64
13.43	-261.54
14.04	-254.82
15.26	-247.5
16.78	-239.56
17.7	-231.32
18.01	-223.39
17.09	-215.45
15.56	-206.91
14.04	-197.14
12.51	-185.55
10.99	-171.51
9.16	-155.64
7.63	-139.16
7.02	-122.38
7.32	-106.81
7.63	-92.77
7.93	-80.87
7.63	-70.8
6.71	-62.87
6.1	-56.46
5.49	-51.88
5.49	-48.22
6.41	-46.39
7.93	-46.39
10.68	-49.74
14.34	-57.07
18.31	-69.58
22.89	-86.67
26.86	-107.42
29.91	-129.7
31.74	-151.98
32.65	-173.03
33.26	-192.87
34.48	-210.27
36.01	-225.83
37.84	-239.26
39.06	-250.24
39.37	-260.31
38.76	-269.78
36.93	-278.93
35.1	-286.87
34.18	-293.27
33.87	-297.24
33.87	-299.68
33.57	-301.51
32.04	-303.04
30.82	-303.96
31.74	-302.43
36.32	-296.94
44.86	-284.73
56.76	-263.06
69.58	-230.41
79.96	-188.29
86.98	-142.82
90.94	-100.4
94.91	-63.78
101.01	-29.91
108.95	7.32
115.66	50.05
116.58	92.16
110.17	124.51
98.57	139.16
85.75	137.94
76.6	132.45
73.85	135.19
78.13	152.59
88.5	180.66
100.1	206.3
107.73	210.88
106.2	180.05
93.99	108.03
73.55	3.36
50.66	-112.61
30.52	-215.15
16.17	-286.25
7.93	-325.32
4.27	-345.76
1.53	-362.55
-1.53	-382.08
-5.49	-401.31
-9.16	-413.21
-11.6	-415.95
-12.21	-413.82
-11.29	-412.6
-10.38	-414.73
-10.07	-418.7
-10.38	-422.06
-10.99	-422.97
-10.99	-422.36
-10.68	-420.53
-9.77	-417.48
-8.85	-409.85
-7.93	-391.24
-7.63	-356.14
-7.02	-302.73
-3.66	-237.73
5.8	-172.12
20.75	-114.75
35.4	-59.81
36.62	16.78
12.21	138.55
-36.93	292.05
-92.47	407.71
-129.39	379.64
-140.69	132.75
-145.57	-310.36
-177.92	-819.7
-258.48	-1221.31
-364.69	-1397.40(R)
-442.5	-1345.52
-442.81	-1155.09
-355.83	-936.28
-218.81	-757.14
-88.81	-628.66
-8.85	-533.14
14.34	-457.15
2.14	-402.22
-14.95	-372.92
-19.84	-366.21
-11.6	-370.48
0.31	-373.54
7.63	-368.96
8.54	-358.89
6.71	-348.21
6.1	-340.88
7.32	-336
9.46	-332.03
10.99	-326.23
11.6	-319.21
11.29	-312.5
10.68	-306.7
10.38	-301.82
10.99	-296.63
12.21	-290.83
13.12	-283.51
13.43	-275.57
12.51	-267.03
11.9	-257.57
12.82	-247.8
14.65	-238.65
16.17	-231.02
16.17	-224.61
14.95	-217.29
13.12	-208.13
12.21	-196.23
11.6	-182.19
10.99	-167.85
9.46	-153.5
7.32	-138.55
6.1	-122.68
6.1	-105.29
7.32	-86.98
8.24	-69.89
7.63	-54.93
5.19	-42.42
1.22	-31.43
-1.83	-20.45
-2.75	-8.54
-1.22	3.66
2.14	14.04
5.49	20.14
8.54	21.06
10.99	17.09
13.73	8.85
17.4	-2.75
21.67	-18.31
25.63	-36.93
28.99	-57.98
31.74	-79.65
34.48	-100.71
36.32	-120.85
37.23	-139.16
37.23	-155.64
37.23	-169.37
37.23	-180.05
37.84	-188.29
38.15	-195.01
37.84	-200.5
36.93	-205.38
35.71	-209.05
34.79	-211.18
34.79	-212.1
35.4	-212.4
36.01	-212.1
36.93	-211.79
36.62	-211.49
36.32	-210.27
37.54	-205.08
43.33	-191.35
54.02	-165.1
68.05	-125.43
80.57	-77.21
88.2	-28.38
91.55	14.65
94.3	50.96
99.79	86.06
107.73	125.43
112.92	168.15
111.08	205.99
101.93	229.8
88.2	235.6
75.99	230.41
69.27	227.66
70.5	237.73
77.51	261.84
88.2	291.14
98.27	309.14
102.84	298.77
97.96	249.02
82.4	159.91
58.59	47.3
33.57	-64.39
13.73	-151.67
3.05	-204.77
-0.31	-231.02
-0.61	-247.19
-2.75	-264.89
-7.63	-285.03
-14.04	-301.82
-18.92	-309.14
-19.84	-307.92
-18.31	-303.34
-15.87	-300.6
-14.65	-300.9
-14.95	-302.43
-15.87	-303.65
-16.48	-304.57
-15.87	-304.87
-13.73	-304.57
-11.29	-301.21
-10.07	-290.53
-10.99	-265.81
-12.82	-222.17
-13.12	-161.13
-7.32	-92.47
6.1	-28.99
24.11	25.33
35.71	85.14
27.16	179.75
-9.46	321.35
-64.7	470.89
-113.83	535.58
-137.94	414.12
-142.21	70.5
-156.25	-420.84
-212.1	-897.52
-310.67	-1200.56
-410.46	-1264.04(R)
-454.1	-1134.95
-409.55	-921.63
-292.05	-720.83
-152.59	-571.9
-43.95	-466
8.54	-383
13.43	-316.77
-2.14	-272.52
-13.73	-253.91
-12.21	-253.3
-2.14	-257.57
7.32	-255.74
10.68	-245.97
8.54	-231.93
5.49	-220.03
4.58	-212.71
6.41	-208.13
9.77	-203.55
13.73	-197.45
17.09	-189.51
19.53	-181.27
20.75	-173.95
20.75	-167.54
20.14	-161.13
19.53	-154.42
18.92	-147.4
18.01	-140.38
17.09	-133.06
15.87	-125.73
14.95	-118.1
14.65	-109.56
14.95	-100.71
15.56	-90.94
16.48	-79.65
16.48	-67.44
15.26	-54.63
13.43	-40.89
11.29	-26.86
8.85	-11.9
7.32	3.66
6.41	19.23
6.1	34.79
6.71	49.74
7.63	64.7
7.93	78.74
7.63	91.86
6.71	104.37
5.8	115.97
5.49	126.34
6.1	135.5
7.32	142.52
8.85	146.48
11.6	146.18
15.26	141.3
19.84	131.23
25.33	115.97
30.21	96.74
33.57	75.38
35.4	53.41
36.01	32.35
36.62	12.51
36.93	-6.41
37.23	-23.8
37.23	-39.67
37.23	-53.71
37.54	-65.61
38.15	-75.99
38.76	-84.23
39.67	-90.33
39.37	-94.3
38.76	-95.83
37.84	-96.13
36.93	-96.13
36.93	-96.13
37.54	-97.05
38.15	-97.96
38.76	-97.96
40.28	-95.21
43.95	-87.59
50.66	-72.02
60.73	-44.86
72.33	-5.8
82.7	41.81
90.64	90.64
96.44	133.97
101.62	171.2
108.03	206.91
113.83	245.97
117.19	288.09
114.44	325.62
105.9	349.12
93.08	354
80.26	347.6
71.72	343.32
70.8	353.39
78.13	380.25
91.25	414.43
104.06	437.93
110.17	430.91
105.29	381.77
89.72	291.44
67.14	176.39
43.95	62.56
24.41	-26.55
11.29	-80.87
4.58	-107.73
1.53	-123.6
-0.31	-140.38
-3.36	-159.91
-7.32	-176.09
-10.68	-184.33
-12.21	-184.63
-11.6	-182.8
-10.07	-183.11
-9.16	-187.07
-9.77	-192.87
-11.6	-198.36
-13.12	-202.03
-14.04	-203.25
-12.82	-201.11
-10.68	-193.79
-8.85	-179.14
-8.24	-151.98
-9.16	-108.64
-9.46	-50.35
-4.88	14.95
7.32	75.99
24.72	129.39
36.62	190.43
28.08	286.56
-8.54	428.16
-63.17	574.04
-111.39	629.27
-133.97	494.69
-137.63	139.16
-152.89	-356.45
-211.49	-826.72
-311.89	-1115.42
-410.77	-1163.64(R)
-451.36	-1023.56
-402.53	-805.66
-281.37	-603.94
-140.69	-455.63
-33.87	-350.34
14.95	-269.17
15.56	-206.3
-3.36	-166.32
-16.48	-151.37
-14.34	-152.89
-3.05	-157.47
8.24	-155.64
13.12	-146.79
12.51	-135.5
10.99	-126.04
11.9	-119.63
14.95	-114.14
17.7	-108.03
19.53	-100.4
19.53	-92.16
19.53	-84.23
19.84	-76.29
20.75	-67.75
22.28	-59.2
23.19	-50.96
23.19	-43.33
21.67	-36.62
19.84	-30.52
18.31	-23.8
18.31	-16.48
19.23	-8.24
20.45	0
21.36	7.93
21.06	16.48
20.14	27.16
19.23	40.59
19.23	55.85
19.84	71.41
20.45	86.98
19.84	102.23
17.7	117.8
14.65	133.97
11.9	150.76
10.38	166.93
9.77	181.88
10.38	195.01
11.9	206.91
13.43	217.29
14.65	225.83
14.95	231.93
14.65	234.99
14.04	235.29
14.04	232.24
16.17	225.83
19.84	216.06
25.33	202.03
31.13	184.63
35.71	164.18
38.45	142.21
39.67	119.32
39.98	97.35
40.89	77.51
41.81	60.73
42.42	46.69
42.42	35.1
41.81	24.72
41.81	15.87
42.72	8.24
43.03	1.83
42.11	-3.66
40.28	-8.85
38.76	-13.73
38.45	-17.7
39.06	-20.14
39.98	-21.36
40.28	-21.67
40.28	-21.06
41.2	-19.23
44.86	-12.82
51.57	2.14
61.34	29.3
72.33	68.97
82.4	116.88
90.33	164.79
96.44	207.52
102.84	244.14
109.86	278.93
115.97	316.16
118.41	355.22
115.05	389.71
106.2	411.68
94.6	418.4
83.31	415.04
76.6	414.73
76.29	426.94
83.31	453.19
95.21	484.01
106.51	501.71
110.78	487.67
103.76	432.13
86.36	337.52
62.87	221.86
39.06	110.78
20.14	26.55
7.93	-22.89
2.44	-45.78
0.92	-58.9
-0.92	-74.77
-5.19	-94.91
-10.99	-112.3
-15.87	-120.85
-17.4	-119.93
-15.87	-115.97
-13.12	-114.44
-12.21	-117.19
-13.12	-121.15
-14.95	-124.21
-16.17	-124.21
-16.17	-122.38
-14.95	-119.63
-13.12	-114.75
-10.99	-102.84
-9.77	-77.82
-9.77	-33.57
-9.46	27.16
-5.19	94.3
6.71	155.94
22.89	209.66
33.26	272.52
22.89	372.62
-15.56	517.58
-71.41	663.45
-118.41	714.42
-139.47	572.51
-141.91	210.57
-156.86	-286.87
-216.37	-755
-318.3	-1039.12
-418.09	-1083.07(R)
-457.46	-941.47
-406.49	-723.88
-283.51	-523.68
-141.91	-377.5
-35.71	-274.66
12.51	-196.23
14.04	-134.28
-1.22	-93.38
-10.38	-75.68
-6.41	-74.46
4.27	-78.74
12.51	-77.82
14.65	-69.89
13.43	-57.98
13.12	-47.61
14.95	-41.2
17.09	-38.45
17.4	-36.93
15.87	-33.57
14.04	-27.47
13.73	-19.23
15.56	-10.68
18.62	-3.36
21.97	1.83
24.11	5.8
24.41	9.46
22.58	13.73
20.45	18.92
19.23	25.02
19.84	32.04
21.97	40.89
23.5	50.96
23.5	61.04
21.67	70.8
19.84	81.18
18.62	92.77
18.62	106.51
18.92	121.77
18.62	137.33
16.78	152.59
13.73	167.85
10.07	183.41
7.02	199.58
5.19	216.06
5.19	231.63
6.1	245.67
6.71	257.87
7.02	268.55
7.63	277.71
9.16	285.64
10.99	291.14
12.21	293.27
12.82	291.14
13.43	284.73
15.26	274.05
19.53	259.7
25.33	241.7
31.43	221.25
36.01	198.67
38.45	176.39
38.76	155.64
38.45	138.24
38.15	124.21
39.06	112
40.59	100.71
42.11	90.33
42.72	80.26
42.72	72.02
41.81	65.61
40.89	61.95
39.98	59.81
39.37	58.29
38.45	56.46
37.23	54.63
36.01	53.71
36.01	54.02
36.62	56.46
38.76	60.73
42.72	67.44
48.83	79.96
57.98	101.62
68.66	134.58
78.74	177.31
86.06	223.08
91.25	265.81
96.44	303.34
103.76	338.75
112	376.59
118.41	418.09
118.1	456.85
110.47	484.01
97.35	493.77
83.01	490.42
72.94	486.45
70.8	494.08
77.51	517.88
89.72	550.23
102.23	574.34
108.64	570.68
105.59	527.34
92.77	443.73
72.33	332.64
49.44	217.59
28.99	122.07
13.73	58.59
3.97	23.5
-1.22	3.36
-4.88	-14.65
-7.93	-33.26
-11.29	-48.52
-13.43	-55.24
-14.04	-54.32
-14.04	-51.27
-14.34	-51.57
-15.56	-55.54
-17.4	-60.73
-19.23	-63.78
-19.84	-64.7
-18.92	-64.7
-16.78	-64.09
-13.73	-62.26
-10.99	-54.32
-9.46	-34.48
-9.77	3.66
-9.77	59.81
-6.41	126.04
3.66	189.51
19.23	244.14
31.74	298.46
27.47	380.25
-3.97	508.73
-57.07	660.1
-109.86	751.34
-140.08	677.19
-146.79	379.03
-155.33	-93.99
-199.28	-592.65
-290.22	-946.04
-395.2	-1062.01(R)
-458.07	-965.27
-436.4	-758.97
-332.95	-548.1
-191.96	-386.66
-69.89	-272.83
-1.53	-186.16
13.73	-116.27
0.61	-67.14
-13.43	-43.95
-14.95	-42.42
-6.41	-49.74
3.36	-53.1
7.63	-47.91
7.02	-37.54
5.49	-26.86
5.49	-19.53
7.02	-15.26
8.85	-11.6
9.16	-7.32
9.16	-1.83
8.85	3.97
8.85	9.77
9.77	16.17
11.29	22.89
12.51	29.91
13.73	36.32
14.04	42.72
14.34	49.44
14.95	57.37
15.87	66.22
16.48	75.38
16.17	83.92
14.04	91.86
10.99	99.79
7.93	109.25
6.1	120.85
6.71	134.89
8.54	150.45
10.07	166.02
9.77	181.27
7.63	196.84
4.58	213.32
2.44	230.71
1.53	248.11
1.22	263.98
1.22	278.02
1.22	289.92
1.22	299.68
1.22	307.92
1.53	314.03
1.53	317.99
2.14	318.91
3.66	317.08
6.41	311.58
10.68	302.73
15.26	289.61
19.23	272.22
21.67	251.16
23.19	227.66
24.41	203.86
25.94	181.27
27.47	160.83
28.69	142.21
28.99	126.04
29.3	111.39
29.91	99.18
30.82	89.42
31.43	81.79
31.43	75.38
31.13	70.5
31.13	66.22
31.43	62.56
31.74	58.59
31.13	54.63
29.3	51.57
27.16	49.44
25.63	48.83
26.25	49.74
28.99	52.8
34.48	61.34
42.72	79.65
52.8	110.47
62.56	153.5
70.5	202.64
75.99	249.63
80.87	289.61
86.98	324.4
94.3	360.11
100.71	399.78
101.93	440.06
95.83	471.8
84.23	487.67
70.19	487.06
58.9	480.65
54.32	481.87
57.68	498.05
67.44	527.04
80.26	555.11
90.64	563.35
93.38	535.58
85.14	465.09
66.53	359.5
41.81	240.17
17.7	133.06
0	58.29
-8.54	18.62
-10.07	1.53
-8.54	-10.38
-8.85	-25.63
-12.21	-43.33
-17.7	-56.46
-22.28	-61.34
-24.41	-60.73
-24.72	-60.42
-24.41	-63.78
-23.8	-68.97
-22.89	-73.85
-21.97	-76.29
-21.06	-76.29
-19.84	-75.38
-18.92	-73.24
-17.4	-67.44
-16.78	-52.49
-17.4	-20.75
-18.31	30.82
-16.48	96.74
-7.02	165.1
10.07	224.61
28.08	278.32
33.26	349.12
11.9	464.78
-37.23	617.98
-95.83	742.8
-138.24	732.73
-154.42	506.59
-160.52	77.21
-191.04	-431.21
-267.94	-843.81
-373.23	-1036.38(R)
-454.41	-999.76
-461.12	-819.09
-379.94	-605.16
-244.45	-429.38
-111.08	-304.26
-24.72	-211.49
4.88	-137.02
-3.05	-80.87
-19.53	-49.13
-25.94	-40.89
-20.45	-45.17
-10.99	-49.74
-5.8	-46.69
-5.8	-36.93
-7.32	-25.33
-6.41	-16.48
-2.44	-11.9
1.53	-9.46
3.36	-6.41
3.36	-1.53
3.36	4.88
4.88	12.21
7.93	19.23
10.38	25.02
10.99	29.91
10.38	34.48
9.46	39.67
9.46	46.08
10.07	53.71
10.38	61.65
9.77	68.66
8.54	75.68
7.63	82.7
7.93	90.64
8.85	100.1
9.46	110.78
9.77	122.99
9.77	135.8
9.16	149.23
7.93	162.66
6.41	176.09
5.19	190.43
3.97	205.99
2.75	223.08
1.83	240.48
1.22	256.96
0.92	271.3
0.92	283.2
0	292.05
-1.53	298.16
-3.36	302.73
-4.27	305.79
-3.36	307.62
-0.61	307.01
3.36	303.04
7.02	293.58
10.07	278.02
11.6	256.65
12.82	231.93
15.87	207.21
20.45	185.55
25.63	167.85
29.3	152.59
30.21	137.94
28.69	122.99
26.55	107.73
25.33	93.38
25.33	81.18
25.63	72.02
25.94	66.22
26.25	62.87
26.55	61.04
26.55	59.51
25.63	57.07
24.11	54.32
22.89	51.57
21.67	50.05
21.67	49.74
23.5	51.57
28.38	57.68
37.54	71.72
50.35	97.96
64.09	136.72
75.68	184.63
83.62	234.07
89.11	278.93
94.91	318.6
102.54	356.75
110.17	397.34
113.22	438.54
108.95	472.41
96.74	491.64
80.26	493.77
64.7	486.45
54.63	482.79
52.8	492.86
59.2	518.49
71.11	549.93
82.4	568.24
87.28	555.11
81.18	499.27
65	403.44
42.72	285.95
19.53	172.42
0	85.45
-13.12	32.35
2.44	161.44
21.06	231.63
20.75	339.97
-10.38	504.76
-65.61	695.19
-118.71	817.26
-145.26	756.23
-145.87	453.8
-151.37	-34.18
-200.81	-549.93
-304.26	-920.11
-423.89	-1057.43
-496.22	-991.82
-476.38	-824.28
-368.04	-651.86
-220.34	-516.66
-93.38	-413.82
-23.5	-327.45
-8.54	-255.13
-22.58	-204.47
-36.93	-180.05
-37.84	-175.17
-27.77	-177.31
-16.48	-177
-10.99	-170.59
-11.6	-160.83
-14.34	-151.37
-15.87	-144.65
-14.65	-140.38
-12.21	-137.02
-9.46	-132.75
-7.32	-126.65
-5.8	-119.93
-5.19	-113.22
-4.88	-106.81
-4.27	-100.4
-2.75	-93.99
-1.22	-88.2
0.31	-83.01
0.92	-77.82
0.92	-72.02
1.22	-64.09
2.44	-54.02
3.97	-42.42
5.19	-30.52
6.1	-18.92
5.8	-8.24
5.19	2.14
4.27	13.43
3.36	25.63
2.14	39.37
0.92	54.32
0	70.5
-0.92	87.28
-1.53	103.45
-2.14	117.8
-3.05	130.31
-3.36	140.99
-3.97	151.06
-3.66	160.22
-3.36	168.15
-2.44	174.56
-0.92	178.53
0.61	180.36
1.53	178.83
2.14	173.95
2.75	165.1
4.27	152.28
6.41	135.8
8.85	116.27
10.99	95.52
12.82	74.46
13.73	54.32
13.73	35.4
12.82	17.4
11.29	0.92
10.07	-14.34
9.77	-27.77
9.77	-38.76
9.46	-47.3
8.54	-54.02
7.63	-58.59
7.32	-61.65
7.63	-64.09
7.93	-65.61
7.32	-66.83
6.41	-67.75
6.41	-67.44
8.24	-65.31
14.04	-57.68
23.5	-40.59
35.1	-10.99
46.39	30.82
55.24	79.04
61.65	126.04
67.44	166.02
74.16	200.81
82.4	235.29
89.42	273.44
91.86	312.5
87.59	344.24
77.82	360.41
65.31	361.02
54.63	355.22
50.05	356.75
52.49	373.23
61.34	401.92
72.02	430.6
78.74	440.98
77.21	418.09
65.92	354.61
47.3	256.04
25.33	140.99
4.58	32.96
-12.82	-48.22
-25.02	-97.35
-31.74	-123.29
-34.18	-140.69
-35.1	-159.3
-36.93	-179.14
-39.98	-194.4
-43.33	-200.81
-45.47	-200.5
-44.86	-198.06
-42.72	-198.36
-40.28	-202.64
-38.76	-208.74
-39.06	-213.93
-40.28	-216.37
-40.89	-215.15
-39.67	-210.57
-36.32	-201.42
-32.04	-185.24
-29.6	-156.86
-29.91	-110.47
-31.13	-47.61
-26.86	22.58
-13.12	88.5
8.85	146.48
26.25	211.79
22.28	316.77
-13.12	478.52
-70.19	661.93
-122.07	770.87
-145.87	691.83
-145.57	373.54
-152.59	-119.93
-205.38	-626.22
-310.36	-975.04
-427.25	-1088.56(R)
-493.47	-1006.16
-468.14	-832.52
-357.36	-661.62
-211.49	-531.31
-89.11	-432.43
-22.58	-347.29
-9.77	-275.57
-24.11	-226.14
-38.15	-203.86
-39.06	-200.81
-29.3	-203.86
-18.62	-202.33
-13.73	-193.79
-15.26	-182.5
-18.62	-173.34
-20.14	-167.85
-18.31	-163.88
-14.95	-159
-11.9	-151.98
-10.07	-144.04
-9.46	-136.72
-9.46	-130.92
-8.85	-125.43
-6.71	-119.32
-3.97	-112
-1.22	-104.37
-0.31	-97.05
-0.61	-90.64
-1.83	-84.53
-2.14	-77.82
-1.22	-69.89
0.31	-60.42
0.31	-50.96
-1.53	-41.81
-3.97	-33.26
-5.19	-24.11
-4.58	-13.12
-3.36	-0.31
-3.36	13.73
-5.19	28.38
-8.24	43.95
-10.68	61.04
-11.29	79.04
-10.68	96.44
-9.46	112.3
-8.54	126.04
-7.63	137.33
-6.71	147.09
-4.88	155.33
-3.05	161.44
-2.44	165.41
-2.75	167.24
-3.66	166.63
-3.05	162.96
-0.61	156.25
3.36	145.26
7.63	130.31
10.68	111.69
11.29	91.25
10.38	69.89
8.85	49.13
7.63	29.3
7.32	11.29
7.63	-4.88
7.63	-18.92
7.32	-30.82
6.41	-40.59
5.49	-48.83
4.58	-55.54
3.97	-61.34
3.66	-66.53
3.36	-70.8
3.36	-74.16
3.36	-76.29
3.36	-76.6
4.58	-74.77
8.54	-68.97
16.78	-55.85
28.69	-32.04
41.81	3.66
53.41	47.91
61.04	94.6
65.31	136.72
69.89	173.34
75.99	208.13
83.62	245.36
89.11	286.56
88.81	325.62
82.09	353.7
70.19	366.21
57.98	365.3
49.13	362.24
47	368.65
51.88	390.32
61.65	422.36
72.63	450.74
78.74	457.15
75.38	426.33
61.95	352.78
40.89	245.97
17.09	128.17
-3.66	24.41
-18.62	-48.52
-27.47	-90.03
-31.74	-113.22
-33.87	-131.84
-36.32	-151.98
-39.98	-170.59
-44.25	-181.88
-47	-185.24
-48.22	-184.94
-47.61	-187.07
-46.69	-193.18
-46.39	-200.81
-46.69	-205.99
-47.91	-208.13
-48.52	-207.52
-49.13	-206.3
-48.22	-204.77
-46.08	-199.58
-43.03	-184.94
-40.59	-153.2
-39.37	-100.4
-36.62	-31.13
-28.38	42.72
-11.6	109.86
9.77	171.2
22.28	248.11
10.07	370.79
-33.87	545.35
-93.99	719.6
-141.6	787.35
-158.69	643.62
-156.56	263.37
-171.81	-258.79
-238.65	-746.46
-352.17	-1043.09
-463.26	-1099.85(R)
-509.95	-979.31
-460.82	-792.54
-334.47	-624.08
-187.07	-498.96
-74.16	-401.92
-20.45	-317.69
-15.87	-248.72
-31.74	-204.47
-42.72	-187.68
-40.28	-188.9
-30.21	-194.7
-21.67	-195.01
-19.84	-188.6
-22.28	-178.83
-24.72	-169.07
-23.8	-160.83
-19.84	-153.5
-15.87	-146.48
-14.04	-139.77
-14.34	-133.67
-15.26	-128.17
-14.95	-122.07
-12.82	-115.05
-10.38	-107.42
-8.85	-100.1
-8.54	-93.69
-8.54	-87.28
-8.24	-80.26
-7.32	-72.63
-6.71	-65.31
-7.32	-57.68
-8.24	-49.44
-9.16	-39.67
-9.77	-28.99
-10.99	-17.4
-12.21	-5.19
-12.82	7.93
-12.21	22.58
-10.99	37.84
-10.07	53.1
-10.38	67.44
-12.21	82.7
-13.43	98.88
-13.73	116.58
-12.82	133.67
-12.51	147.71
-13.12	158.08
-14.04	165.1
-14.34	169.98
-13.12	174.26
-10.68	176.7
-8.54	177
-7.32	173.34
-6.1	165.71
-4.27	154.72
-1.22	140.08
1.53	122.68
3.05	102.84
2.44	81.18
0.92	59.2
0	38.15
0.61	19.23
3.05	2.75
5.49	-10.68
7.02	-21.67
6.1	-31.43
3.66	-41.5
0.31	-51.27
-2.44	-60.73
-3.36	-68.05
-3.05	-72.94
-2.44	-76.6
-2.75	-79.65
-3.66	-82.09
-4.88	-83.62
-4.58	-82.4
-1.83	-77.82
3.97	-68.66
12.51	-53.1
22.58	-27.47
33.87	9.46
45.17	54.93
54.93	102.54
63.48	145.87
70.5	183.41
76.9	219.42
81.48	258.18
83.01	300.29
79.96	338.44
72.02	364.38
60.73	373.23
49.13	369.26
41.2	364.99
39.06	371.4
43.95	391.85
53.71	420.84
64.7	443.42
71.11	441.89
68.36	402.83
55.85	323.18
35.4	214.54
12.21	100.1
-8.85	3.66
-23.8	-60.73
-32.04	-96.44
-35.71	-118.41
-37.84	-139.77
-41.2	-163.88
-45.47	-184.02
-49.44	-193.79
-51.27	-192.87
-50.66	-187.99
-49.13	-185.85
-48.22	-187.99
-48.83	-192.26
-49.74	-195.62
-50.66	-197.14
-50.66	-197.14
-49.74	-196.23
-48.52	-193.18
-47.3	-184.02
-46.08	-162.05
-45.47	-121.77
-43.64	-62.26
-38.15	9.16
-25.63	78.13
-6.1	136.11
13.12	189.82
18.62	268.86
-3.97	403.75
-55.54	586.55
-115.05	745.24
-154.72	764.47
-162.96	553.89
-159.91	122.99
-185.55	-402.22
-267.64	-839.84
-387.57	-1061.10(R)
-487.37	-1054.08
-508.12	-903.02
-431.52	-715.94
-291.44	-560.3
-149.23	-444.95
-54.63	-352.48
-20.45	-272.83
-27.16	-212.4
-43.64	-179.14
-49.44	-171.51
-42.11	-177
-30.21	-180.97
-23.19	-177
-22.89	-165.41
-25.94	-152.59
-28.08	-143.43
-26.86	-139.47
-24.11	-137.94
-21.06	-135.8
-18.31	-130.62
-16.48	-122.68
-15.26	-113.53
-14.95	-104.68
-15.56	-97.35
-16.48	-90.33
-16.48	-83.31
-15.56	-75.38
-13.73	-66.83
-11.9	-58.9
-11.29	-52.19
-11.9	-46.39
-13.12	-40.28
-14.04	-32.35
-14.04	-21.97
-13.43	-9.46
-12.51	4.58
-11.9	18.92
-12.51	32.96
-13.73	46.39
-15.26	59.2
-16.78	72.94
-17.4	88.5
-17.09	105.9
-15.87	125.12
-14.34	143.74
-13.73	160.83
-14.65	175.17
-16.48	186.77
-17.7	195.92
-18.01	203.55
-16.78	209.05
-14.65	212.1
-12.51	211.79
-10.99	207.21
-9.16	199.28
-6.71	187.99
-3.36	173.65
0	155.94
2.75	135.19
4.27	112.92
5.19	90.33
5.8	69.27
6.41	50.35
6.41	33.57
6.1	19.53
5.8	7.93
5.49	-0.92
5.49	-8.24
4.58	-14.34
3.05	-20.14
0.92	-25.63
-0.61	-29.91
-1.53	-32.65
-0.92	-34.48
0	-35.71
0.92	-36.01
1.83	-35.4
3.36	-33.26
6.71	-26.86
13.73	-12.21
24.41	14.34
37.23	53.41
48.83	101.01
57.37	149.54
63.48	192.87
69.89	230.41
78.13	266.72
86.06	306.7
89.72	349.12
85.75	386.35
74.46	409.85
60.42	416.56
48.22	412.9
41.81	411.38
42.11	422.06
48.22	446.78
57.68	477.91
67.14	499.88
72.02	495.61
69.27	452.88
57.07	370.79
37.54	260.62
14.34	145.87
-7.32	49.74
-23.8	-14.95
-33.57	-51.27
-37.84	-73.85
-39.67	-94.6
-41.81	-116.27
-45.17	-133.67
-48.52	-141.6
-50.35	-140.99
-49.74	-138.55
-47.91	-140.38
-46.69	-147.09
-46.69	-155.03
-47.91	-160.22
-49.44	-162.05
-49.13	-161.13
-47.3	-159.3
-43.95	-155.33
-40.89	-145.87
-39.06	-125.12
-39.37	-86.98
-40.59	-30.52
-38.76	37.84
-28.38	105.59
-8.54	164.49
13.73	222.17
21.67	305.18
-0.31	442.2
-53.1	623.17
-114.75	776.98
-155.64	789.18
-163.57	572.2
-159.61	136.41
-185.24	-391.85
-267.94	-830.69
-388.79	-1050.72(R)
-489.2	-1040.34
-510.25	-885.31
-433.96	-695.8
-293.88	-539.86
-150.45	-425.11
-53.41	-331.73
-17.09	-249.63
-22.58	-185.55
-39.98	-148.62
-47.3	-137.94
-40.59	-140.99
-28.08	-144.04
-19.23	-140.38
-18.01	-131.23
-21.06	-122.07
-23.19	-115.66
-21.67	-111.39
-17.4	-107.73
-13.43	-102.84
-11.29	-96.74
-10.99	-90.03
-10.68	-83.01
-9.77	-75.68
-8.54	-68.05
-7.93	-60.73
-8.24	-54.02
-9.16	-47.61
-9.46	-41.2
-9.46	-33.87
-9.16	-25.94
-9.46	-17.09
-10.07	-7.32
-10.68	2.75
-10.38	11.9
-9.46	21.36
-8.54	31.74
-8.85	44.25
-10.68	58.9
-12.82	74.46
-14.65	90.33
-15.87	105.59
-16.17	121.46
-15.56	137.63
-14.65	153.81
-14.04	169.07
-13.73	182.19
-14.65	192.87
-16.48	201.42
-17.7	208.44
-17.7	214.54
-16.48	218.81
-14.65	220.34
-13.12	219.12
-11.29	214.54
-9.16	206.91
-6.1	196.53
-2.14	182.19
0.92	163.88
2.75	142.21
3.66	119.93
4.88	98.88
6.41	80.57
7.93	63.17
7.32	46.39
5.19	29.91
1.83	14.95
-0.61	3.66
-1.53	-3.97
-1.53	-9.46
-0.92	-14.04
-0.92	-18.62
-0.92	-22.89
-1.53	-26.55
-1.83	-28.99
-2.14	-30.21
-2.14	-31.43
-1.53	-32.96
-0.31	-33.87
1.83	-32.65
6.1	-26.25
13.73	-10.99
25.02	15.56
38.15	53.41
49.74	99.18
57.68	146.48
61.95	189.51
65.61	226.44
70.8	260.31
78.13	296.63
83.62	336
83.31	373.23
75.38	398.56
62.26	406.8
48.22	401.61
38.15	394.9
34.48	399.78
38.15	420.84
47.91	451.97
59.81	477.6
67.44	477.6
66.53	438.23
55.24	357.97
35.4	248.11
11.6	131.53
-11.29	32.35
-28.38	-34.79
-37.84	-71.11
-41.2	-90.64
-41.81	-107.73
-56.15	-162.35
-59.2	-165.1
-57.98	-160.83
-53.71	-155.94
-50.35	-155.03
-49.44	-158.08
-50.96	-162.96
-52.49	-167.54
-52.19	-170.29
-50.05	-170.29
-47.3	-166.32
-44.56	-155.64
-43.33	-132.75
-43.03	-92.77
-43.03	-35.1
-39.67	32.65
-29.91	97.66
-12.51	151.67
7.32	202.94
14.95	280.76
-3.97	415.95
-52.49	601.81
-111.69	766.91
-153.2	794.98
-163.88	592.96
-161.44	166.63
-184.94	-360.41
-263.37	-805.05
-381.47	-1033.63(R)
-482.48	-1029.97
-506.29	-878.3
-432.13	-690.61
-291.75	-538.02
-147.4	-429.99
-50.35	-345.15
-15.56	-269.47
-23.8	-206.6
-42.42	-167.24
-49.13	-154.42
-40.89	-159
-26.55	-166.63
-16.78	-167.85
-15.26	-160.52
-18.31	-149.23
-21.36	-138.24
-21.36	-130
-18.62	-122.99
-15.87	-115.97
-14.34	-107.73
-14.34	-100.4
-15.26	-94.91
-15.87	-91.86
-15.56	-90.33
-13.43	-89.42
-11.29	-86.67
-10.07	-81.79
-10.99	-73.85
-12.21	-64.09
-13.43	-54.63
-13.43	-46.69
-12.51	-39.98
-11.9	-33.57
-11.6	-25.63
-12.21	-16.48
-13.43	-6.41
-14.65	4.58
-15.56	17.4
-15.26	32.96
-13.73	50.96
-12.51	70.5
-11.9	88.5
-11.6	103.76
-11.29	115.97
-10.99	126.65
-10.68	137.63
-10.38	149.54
-10.99	162.35
-11.6	173.95
-11.6	182.8
-10.99	187.99
-9.16	189.82
-6.1	189.21
-2.14	186.46
2.14	180.66
5.8	169.68
8.54	154.42
9.77	136.11
10.38	117.49
9.46	99.49
8.24	79.96
6.71	58.29
6.1	35.1
6.71	13.73
7.93	-1.83
8.24	-11.29
7.63	-17.09
6.71	-23.19
5.8	-32.04
5.8	-43.33
5.49	-54.02
3.97	-60.73
1.83	-62.87
-0.61	-61.65
-1.83	-58.9
-1.53	-56.46
0	-56.15
2.44	-57.68
5.8	-60.12
10.99	-58.9
18.62	-48.22
28.08	-23.5
37.54	15.87
45.17	64.7
50.66	115.05
55.54	159.61
61.95	196.84
70.8	231.02
80.26	267.03
85.14	305.18
82.7	339.36
72.02	361.33
57.37	368.04
44.56	364.99
37.84	363.77
38.76	374.76
45.78	399.78
56.15	432.43
65.92	456.85
70.5	454.71
67.14	412.29
54.02	327.45
33.26	212.4
9.16	93.08
-12.51	-3.66
-27.47	-64.39
-34.48	-94.3
-36.01	-112.3
-36.32	-134.28
-38.76	-162.96
-43.64	-189.82
-49.13	-204.77
-51.88	-205.99
-51.88	-200.2
-50.66	-195.92
-49.74	-197.14
-50.66	-203.55
-52.19	-212.1
-52.8	-219.73
-51.88	-224
-49.74	-222.78
-47.3	-215.45
-44.86	-201.42
-42.72	-178.53
-41.2	-142.21
-39.06	-90.64
-34.48	-27.47
-24.41	39.06
-8.85	102.84
7.32	171.81
12.82	272.52
-3.97	429.38
-43.95	628.66
-90.33	794.07
-121.46	809.63
-131.23	591.74
-139.47	157.17
-179.75	-364.07
-269.78	-794.98
-385.74	-1014.4
-471.8	-1016.54(R)
-478.21	-884.09
-395.2	-718.08
-260.62	-578
-130.92	-472.41
-47.91	-386.05
-18.92	-312.19
-24.41	-255.74
-38.15	-223.39
-43.33	-214.23
-38.15	-219.42
-29.3	-226.44
-23.8	-226.44
-23.19	-216.67
-25.02	-200.81
-26.25	-184.63
-25.33	-174.56
-23.5	-172.12
-21.67	-175.17
-20.75	-178.22
-19.53	-176.39
-17.4	-168.15
-14.65	-155.03
-11.9	-141.6
-9.77	-131.84
-8.85	-126.04
-9.46	-121.46
-10.68	-115.05
-11.6	-104.37
-12.51	-90.94
-13.12	-77.82
-13.73	-67.44
-14.65	-61.04
-15.56	-57.68
-15.87	-54.93
-14.95	-50.66
-12.82	-41.81
-10.68	-28.08
-9.16	-10.38
-9.16	9.77
-10.38	29.6
-11.9	47.61
-13.43	63.78
-14.34	78.74
-14.65	92.16
-14.34	104.06
-12.82	114.75
-9.77	124.21
-5.8	133.36
-2.14	141.91
0	148.62
-0.31	151.37
-1.53	149.84
-2.14	143.74
-1.22	134.58
1.53	123.29
4.88	109.56
7.93	92.77
9.46	73.24
10.07	52.49
10.07	31.43
10.07	11.29
10.68	-7.02
11.29	-22.89
11.9	-36.32
11.6	-47.91
10.38	-57.68
9.16	-66.22
7.93	-73.55
7.63	-79.65
7.93	-83.92
8.24	-86.98
8.24	-88.81
7.93	-89.42
7.32	-90.03
6.71	-90.64
6.41	-91.86
6.1	-93.08
7.02	-91.55
10.99	-84.53
18.62	-67.75
29.6	-38.76
40.89	1.22
50.05	48.22
56.46	95.21
61.95	137.33
68.36	174.26
76.29	209.96
83.01	248.72
85.45	289.31
81.79	325.62
72.94	350.04
61.95	359.5
51.88	358.89
45.47	359.8
43.95	370.79
47.91	394.59
56.46	424.5
65.92	445.25
71.41	439.15
68.05	393.07
54.63	305.18
33.87	188.6
11.6	69.27
-7.32	-27.47
-19.84	-88.81
-26.25	-119.93
-28.69	-137.33
-30.21	-154.42
-32.04	-174.26
-34.79	-191.04
-36.93	-198.97
-38.45	-199.28
-39.37	-197.45
-40.59	-198.97
-41.5	-203.55
-41.5	-208.44
-40.59	-211.18
-38.45	-210.57
-36.32	-207.82
-34.18	-204.77
-32.65	-200.2
-30.82	-190.73
-30.21	-170.29
-30.52	-131.84
-30.82	-74.46
-27.77	-4.58
-17.4	65
0.61	126.95
18.92	190.43
22.89	284.42
0	433.35
-48.52	620.73
-101.62	767.52
-133.67	759.58
-140.08	519.71
-143.74	75.38
-182.8	-438.54
-275.27	-848.08
-393.98	-1042.18(R)
-478.52	-1024.17
-478.21	-879.21
-385.74	-705.87
-242.31	-560.91
-108.34	-450.13
-26.55	-361.02
-2.75	-287.48
-13.43	-234.07
-29.6	-205.38
-34.18	-197.45
-25.94	-199.58
-14.34	-200.81
-7.32	-195.62
-7.02	-185.24
-9.16	-173.65
-9.46	-165.1
-7.63	-161.13
-4.58	-158.69
-3.05	-154.72
-2.44	-147.4
-2.75	-137.94
-2.14	-129.09
-0.92	-122.38
0.31	-117.49
1.53	-113.53
2.44	-108.03
3.05	-101.32
3.36	-93.38
3.66	-85.14
4.27	-77.51
5.19	-69.89
5.8	-61.65
6.41	-51.27
6.1	-38.45
5.8	-23.8
5.8	-9.46
4.88	3.05
3.66	13.73
1.83	24.11
0	36.93
-0.61	53.1
-0.61	71.72
-0.92	90.03
-2.14	106.81
-3.36	122.07
-3.97	135.8
-3.66	149.23
-2.14	160.83
-0.92	169.37
-0.31	174.87
0	177.92
0.61	179.14
1.53	178.53
2.44	174.87
2.75	167.24
3.05	154.72
4.27	138.24
6.71	119.32
10.07	99.49
13.43	79.35
15.87	59.2
17.09	39.67
16.78	21.36
16.17	6.1
15.56	-5.8
15.56	-16.17
15.87	-25.63
16.17	-35.71
15.87	-45.17
15.26	-52.8
14.34	-57.98
13.43	-60.73
13.12	-61.95
13.12	-62.56
13.43	-62.87
13.43	-62.56
13.43	-61.95
13.43	-60.73
14.34	-57.98
17.7	-51.88
24.72	-37.84
35.71	-12.51
49.44	25.63
62.26	72.94
71.72	122.68
77.82	168.15
83.62	206.91
90.33	242.61
97.66	279.54
102.84	319.52
101.93	357.36
93.99	384.22
80.26	394.9
65.92	392.76
54.93	389.71
51.27	397.03
55.54	418.7
65.61	449.22
76.9	473.63
83.92	474.24
82.09	438.23
70.8	361.63
51.88	253.3
30.21	135.19
9.46	32.35
-7.02	-38.76
-17.4	-77.51
-22.89	-97.96
-25.63	-115.66
-28.38	-136.72
-32.35	-157.78
-36.93	-171.51
-39.98	-175.78
-40.28	-174.87
-38.76	-173.65
-36.62	-175.48
-34.79	-179.44
-34.48	-182.8
-35.1	-184.94
-35.71	-184.94
-35.71	-182.8
-34.18	-178.22
-31.13	-168.76
-27.16	-149.84
-24.41	-115.36
-24.11	-61.65
-23.5	6.1
-16.78	76.6
-1.22	139.16
18.01	197.75
26.55	277.71
7.93	410.16
-41.5	593.26
-102.84	763.24
-146.79	807.5
-158.39	628.97
-155.64	221.86
-178.53	-300.9
-256.65	-760.19
-374.15	-1014.71
-474.55	-1037.29(R)
-497.74	-903.02
-423.28	-720.83
-283.81	-564.58
-140.38	-448.91
-43.33	-357.06
-7.02	-277.1
-12.21	-213.01
-28.69	-173.65
-35.71	-159.61
-29.91	-160.52
-18.92	-163.88
-11.6	-162.05
-10.99	-154.42
-14.04	-144.04
-15.87	-135.5
-15.26	-129.7
-12.21	-125.12
-9.16	-119.02
-6.41	-110.47
-4.58	-101.32
-3.66	-93.38
-3.36	-88.5
-3.97	-84.84
-3.97	-80.26
-3.66	-73.24
-2.44	-63.48
-1.22	-53.41
-0.31	-44.25
-0.31	-36.32
-0.61	-28.99
-0.92	-21.06
-0.92	-11.6
-0.61	-0.92
-0.61	10.07
-0.61	21.06
-0.31	32.65
0	45.17
0.31	59.51
0.31	75.38
-0.31	91.86
-0.61	108.64
-1.22	125.12
-2.14	140.38
-3.97	154.72
-6.1	167.54
-7.32	178.83
-6.41	189.51
-3.66	199.28
-0.61	207.21
0.92	212.4
0.92	214.23
0.31	212.4
0.31	207.21
1.22	199.28
3.36	188.6
5.8	174.56
8.54	157.78
11.29	137.94
13.73	116.27
15.26	93.99
15.26	72.33
14.04	52.49
12.51	35.4
10.99	21.67
9.77	10.07
8.54	0.31
7.93	-8.24
7.63	-15.87
8.24	-21.36
9.16	-25.02
9.77	-28.08
9.46	-31.43
7.93	-36.01
6.1	-40.89
4.27	-44.56
3.05	-45.47
2.75	-43.64
3.97	-39.37
7.93	-31.74
16.78	-17.7
29.3	7.02
43.03	44.25
54.93	91.25
62.26	140.38
66.83	184.63
70.8	221.86
76.9	256.65
83.62	294.8
87.59	335.69
86.06	372.92
77.82	397.03
65.61	403.14
53.1	396.42
44.56	390.63
42.11	397.34
46.08	419.92
55.24	451.36
66.22	474.55
72.94	470.58
70.5	427.25
57.98	342.71
36.93	230.71
13.12	115.05
-8.54	18.92
-23.8	-44.56
-30.82	-77.82
-32.04	-95.52
-30.82	-111.39
-31.13	-130
-35.1	-148.01
-40.89	-159
-44.86	-161.44
-45.17	-159
-42.72	-157.47
-39.98	-159.3
-38.76	-163.57
-39.98	-168.46
-41.5	-172.12
-42.72	-173.95
-42.11	-173.34
-39.98	-168.76
-36.93	-157.17
-33.57	-133.67
-31.74	-93.99
-31.74	-36.32
-30.21	32.65
-21.67	101.62
-3.97	161.74
16.17	219.12
22.58	299.99
-0.92	433.96
-54.93	614.01
-117.19	772.09
-157.47	794.68
-164.79	591.43
-159.91	167.24
-184.94	-355.83
-267.94	-797.42
-388.49	-1026.00(R)
-487.37	-1025.7
-505.68	-878.6
-425.72	-693.05
-283.2	-537.41
-139.77	-422.36
-45.47	-330.51
-12.51	-252.08
-20.45	-192.26
-38.76	-159
-46.69	-150.45
-41.2	-154.42
-30.21	-157.47
-21.97	-152.59
-18.92	-140.99
-19.23	-128.17
-19.84	-119.02
-18.92	-114.14
-17.7	-111.08
-16.48	-106.81
-14.95	-98.88
-12.82	-89.42
-10.68	-79.96
-8.85	-72.63
-7.02	-66.83
-5.8	-62.26
-5.19	-57.68
-5.49	-52.19
-6.1	-46.08
-6.41	-38.45
-5.8	-29.6
-4.27	-20.14
-2.75	-10.68
-2.14	-1.22
-2.75	8.54
-4.58	19.23
-6.41	31.13
-7.93	43.64
-8.85	56.76
-9.16	70.8
-8.85	86.06
-7.93	102.23
-7.02	119.02
-7.32	134.89
-8.85	149.23
-11.29	162.66
-13.12	174.87
-14.04	186.16
-14.04	195.62
-13.43	203.25
-12.21	209.96
-10.68	215.45
-8.85	219.12
-7.02	219.12
-5.49	215.15
-4.27	207.21
-2.44	195.92
0.31	181.88
3.36	165.1
6.1	145.87
8.24	124.51
9.16	102.84
9.46	82.7
9.46	64.09
9.16	47.91
8.54	33.26
7.63	20.75
7.02	10.68
7.02	3.05
7.32	-3.05
7.02	-9.16
5.8	-15.87
3.97	-22.58
2.75	-27.47
2.75	-29.3
3.97	-28.38
4.88	-26.55
5.49	-25.33
5.8	-24.72
7.63	-22.89
13.43	-15.26
24.11	3.05
37.23	34.79
50.35	77.51
60.42	126.04
67.44	172.73
72.94	213.32
79.65	248.72
86.98	284.12
92.77	322.27
93.08	361.94
86.67	395.2
75.38	415.34
62.26	419.92
50.96	415.95
44.56	416.26
45.17	429.38
52.49	456.85
64.09	487.67
74.46	503.85
76.9	487.37
68.97	429.08
51.57	333.56
29.3	218.51
7.93	107.73
-9.46	21.36
-21.36	-33.26
-27.47	-64.7
-30.52	-86.06
-32.96	-106.81
-36.01	-126.95
-39.98	-140.99
-43.64	-145.87
-45.47	-144.65
-45.78	-143.43
-45.47	-145.87
-44.86	-151.67
-43.95	-157.17
-43.03	-159.91
-43.03	-160.22
-44.56	-159.61
-46.69	-158.08
-47.61	-154.11
-46.08	-142.82
-42.11	-117.49
-39.06	-73.55
-36.62	-11.29
-31.74	59.81
-18.92	128.17
2.14	187.99
21.36	251.46
19.84	348.51
-14.95	500.49
-76.9	680.85
-137.63	802.31
-169.37	750.73
-170.59	462.65
-171.51	-15.56
-213.62	-531.62
-311.58	-909.42
-430.3	-1052.86(R)
-506.29	-986.02
-491.33	-809.63
-385.74	-626.53
-236.82	-485.23
-105.9	-381.47
-32.04	-295.41
-15.26	-221.86
-28.99	-168.46
-43.95	-141.6
-45.17	-136.41
-34.79	-140.08
-23.5	-140.99
-18.31	-135.19
-19.53	-124.82
-21.67	-114.14
-20.45	-105.29
-15.56	-97.96
-10.38	-91.55
-7.02	-85.45
-6.71	-80.57
-8.24	-76.6
-10.07	-72.33
-10.38	-66.22
-9.16	-58.29
-7.02	-49.44
-5.19	-41.5
-4.88	-35.4
-6.41	-31.13
-7.63	-26.86
-7.93	-21.67
-6.71	-14.04
-5.19	-4.58
-4.58	6.1
-5.19	17.09
-6.41	28.08
-7.02	39.37
-7.32	51.27
-7.63	64.09
-7.93	78.13
-8.54	93.38
-8.54	109.56
-8.54	126.04
-8.24	142.52
-7.93	158.39
-8.54	173.03
-9.77	185.85
-10.99	196.53
-11.6	205.69
-10.99	213.62
-9.16	220.64
-7.02	225.22
-5.8	227.05
-5.19	224.91
-5.19	219.42
-3.66	210.88
-0.31	200.2
4.27	186.77
8.24	169.68
10.07	149.23
9.46	126.65
8.54	104.37
8.24	84.53
9.46	67.75
10.68	54.02
11.6	41.81
10.68	30.21
9.16	18.92
7.63	9.16
7.02	1.53
7.02	-3.36
6.71	-6.1
6.41	-9.16
6.1	-12.82
5.19	-17.09
4.88	-20.75
4.88	-22.89
4.88	-22.89
5.19	-22.28
5.8	-21.06
8.54	-18.01
14.95	-9.16
25.33	9.46
37.54	40.59
48.22	83.31
55.54	132.14
60.42	179.44
65.31	221.56
72.63	259.09
81.48	296.94
88.81	338.13
90.03	379.03
84.23	410.46
72.33	424.5
57.98	421.45
45.17	411.68
38.15	409.55
39.06	423.89
48.22	453.49
61.34	484.01
72.63	496.22
75.68	472.72
67.14	406.49
48.22	304.57
23.5	186.77
-0.92	78.74
-18.92	-0.31
-28.99	-46.08
-32.04	-68.97
-32.04	-85.14
-33.57	-103.45
-37.84	-122.38
-43.03	-135.5
-46.39	-139.47
-46.69	-137.33
-45.47	-135.5
-44.25	-137.94
-44.25	-144.04
-44.56	-149.84
-44.56	-152.28
-43.95	-151.06
-43.33	-147.71
-43.33	-144.65
-43.03	-139.77
-41.81	-127.26
-39.67	-98.88
-37.54	-48.83
-33.87	18.62
-25.33	89.72
-8.85	150.76
12.82	201.42
27.16	263.06
17.4	370.79
-25.33	537.41
-87.89	718.38
-141.91	809.02
-164.49	699.46
-162.35	351.87
-170.59	-153.5
-227.05	-646.06
-335.08	-962.22
-448.61	-1039.12(R)
-505.37	-929.57
-466.31	-743.1
-344.85	-569.76
-195.31	-440.98
-76.9	-343.32
-18.92	-259.7
-13.43	-189.82
-30.82	-143.74
-43.64	-124.82
-40.89	-124.82
-28.38	-128.48
-16.48	-126.04
-12.21	-116.27
-14.65	-104.06
-18.62	-94.91
-19.53	-89.11
-16.78	-83.92
-11.9	-77.51
-7.93	-69.89
-6.1	-62.87
-5.8	-58.29
-6.41	-54.32
-6.1	-49.74
-5.19	-43.03
-3.66	-35.71
-2.44	-28.99
-2.14	-23.5
-1.83	-18.01
-1.22	-11.6
-0.31	-3.66
0.61	5.19
0.92	14.65
0.92	24.41
0.31	34.79
-0.92	45.78
-2.14	57.07
-3.05	68.05
-3.05	79.65
-2.75	93.08
-1.83	108.34
-1.53	125.12
-2.14	142.52
-3.36	159.91
-4.58	176.39
-4.88	191.96
-4.27	206.3
-3.97	217.9
-4.58	227.66
-5.19	235.6
-4.88	242.61
-2.44	248.11
0.61	251.16
3.05	249.63
3.97	243.23
3.97	232.85
4.58	219.42
6.1	203.55
8.85	185.24
12.21	164.49
14.34	142.82
15.56	121.15
15.87	101.62
15.87	84.53
15.56	69.89
15.56	57.37
15.26	46.39
14.04	36.62
12.51	28.08
11.29	20.45
10.99	14.04
11.29	8.54
11.9	3.05
11.9	-2.44
10.68	-7.32
8.54	-11.29
6.41	-12.82
5.8	-11.6
7.93	-7.32
14.34	1.53
24.72	17.09
37.54	42.72
50.35	79.04
60.73	124.21
67.14	172.12
71.41	216.98
76.29	256.35
83.01	292.36
90.64	329.9
94.91	370.18
92.77	408.94
83.92	437.32
71.11	450.13
58.29	448.91
49.74	444.64
47.91	449.22
53.41	468.75
64.09	498.96
75.68	524.6
82.09	527.04
79.65	492.25
66.83	416.26
45.78	308.53
20.75	191.35
-2.75	88.81
-19.84	17.4
-28.38	-21.97
-29.91	-42.72
-28.99	-60.12
-30.82	-81.18
-36.62	-102.23
-43.64	-115.66
-48.22	-117.49
-48.83	-112.92
-47	-109.56
-44.86	-111.69
-43.95	-118.41
-44.25	-125.43
-44.25	-129.39
-43.64	-130.62
-42.72	-130
-42.11	-127.56
-41.2	-120.54
-39.37	-103.76
-37.23	-70.5
-34.79	-18.01
-30.52	48.83
-21.67	117.8
-5.19	179.14
14.04	234.68
23.5	307.31
7.93	428.16
-38.45	600.89
-99.18	769.35
-145.87	825.2
-162.05	666.81
-161.44	278.02
-180.36	-239.87
-250.55	-709.84
-363.46	-982.97
-469.06	-1020.20(R)
-506.59	-889.59
-448.61	-701.29
-317.38	-534.97
-169.98	-410.46
-60.73	-311.89
-11.6	-226.14
-9.77	-158.08
-25.94	-118.1
-36.32	-107.12
-33.26	-113.22
-23.19	-119.93
-14.95	-116.88
-12.21	-104.37
-13.43	-88.81
-14.04	-76.9
-12.82	-71.72
-10.07	-70.5
-7.63	-68.97
-6.71	-65
-6.71	-58.59
-6.71	-51.88
-6.41	-46.08
-5.19	-40.89
-3.36	-35.1
-1.53	-28.69
-0.92	-21.36
-0.92	-14.04
-0.92	-7.02
-0.92	0
0	6.71
0.61	13.73
0.61	21.36
-0.61	29.91
-2.44	40.59
-3.97	53.1
-4.27	67.14
-3.66	81.18
-3.05	94.6
-3.66	108.03
-4.88	122.07
-6.41	137.94
-7.63	155.64
-8.24	173.95
-7.93	191.35
-7.32	205.38
-7.02	214.84
-7.32	220.34
-7.93	224.91
-7.63	230.71
-5.8	239.26
-3.36	248.41
-0.31	254.21
2.14	253.91
4.27	245.97
6.71	232.54
8.85	215.76
10.99	197.45
12.82	178.53
13.73	158.39
14.04	136.72
14.04	113.83
13.43	92.16
12.82	73.55
12.21	59.51
11.29	49.13
10.68	39.98