417.79	-450.74396.42	-463.87383.61	-508.73378.72	-578.61380.86	-655.21387.57	-721.44393.68	-773.93394.9	-817.87390.93	-858.15386.66	-895.69386.66	-926.82392.76	-946.96400.09	-953.37401	-944.82390.63	-918.27365.91	-867.31326.54	-785.52271.3	-670.17202.03	-529.48125.73	-384.5251.88	-258.48-8.85	-163.27-53.1	-94.91-84.53	-38.15-108.95	16.17-128.48	65.92-143.13	101.93-151.37	118.71-155.33	121.77-157.78	122.99-161.13	129.7-165.41	141.6-168.46	154.42-169.98	163.57-170.59	168.15-171.81	170.29-174.26	171.81-177.61	173.34-180.97	174.87-183.11	176.39-183.72	177.92-183.41	179.75-182.8	181.88-183.72	184.63-186.46	188.6-189.82	193.18-193.18	197.14-196.23	199.28-199.28	199.58-202.94	198.67-207.82	198.67-213.32	200.81-219.12	205.08-224.3	210.27-229.19	214.84-233.76	216.98-239.26	217.29-245.97	216.67-252.99	216.67-260.31	218.51-266.72	222.17-272.22	226.44-277.1	230.1-281.37	233.15-284.73	235.9-286.87	238.95-286.56	243.23-284.42	248.11-280.46	253.91-274.66	260.01-267.03	265.5-256.65	269.78-243.23	273.74-227.66	277.4-211.18	279.85-195.01	279.85-179.44	277.1-162.96	271.91-144.04	264.59-122.38	256.04-99.49	245.36-76.9	232.24-56.15	216.06-37.84	198.67-22.58	180.97-10.68	163.27-1.53	146.185.49	130.6211.9	117.817.7	107.4221.67	97.9623.19	89.1121.97	79.9619.84	72.0218.62	66.5318.92	64.0920.14	62.8720.45	60.7318.31	57.3714.65	53.111.29	49.1310.38	47.311.6	46.6912.82	46.6912.21	46.088.85	44.564.88	42.112.44	39.672.44	37.233.97	35.45.19	34.484.88	34.183.05	33.571.22	32.350	30.21-0.61	28.08-1.22	26.86-1.83	26.55-2.14	27.47-2.14	28.08-2.14	27.47-2.44	25.94-3.05	24.11-4.27	22.89-5.19	22.28-5.49	21.97-6.41	21.97-7.63	21.67-9.77	21.36-12.21	21.06-13.73	21.67-14.34	22.28-14.34	22.58-14.95	21.67-16.78	20.14-18.62	19.23-19.53	18.92-19.23	20.14-18.62	21.67-18.92	22.58-20.14	22.28-21.97	20.75-23.5	18.31-23.19	16.17-21.67	14.95-19.84	14.65-18.62	15.26-18.62	15.56-18.31	15.56-17.7	15.56-15.87	15.56-13.73	15.87-12.21	16.78-10.99	18.31-9.46	20.45-7.93	22.28-6.71	23.5-6.1	24.41-5.8	27.77-4.88	36.62-2.44	52.81.53	74.776.1	97.3510.07	114.4413.12	122.9914.65	124.2115.26	122.0714.65	122.0714.34	126.9515.26	134.8917.7	141.621.36	143.7425.63	140.3829.6	133.9734.18	128.1739.98	123.947.61	118.156.76	105.965	84.8470.8	56.7673.24	28.3872.02	8.2466.53	1.2258.59	6.7149.44	18.6239.98	29.331.43	32.6523.8	25.9416.78	10.9910.07	-8.244.27	-25.630.31	-36.93-2.14	-40.59-3.36	-39.37-3.66	-36.93-3.66	-36.01-3.66	-36.93-3.97	-38.15-4.27	-38.76-4.88	-38.15-5.49	-36.62-6.41	-35.4-7.93	-35.4-9.77	-36.32-11.29	-37.54-11.9	-37.54-11.9	-36.32-11.9	-34.18-11.6	-32.96-10.99	-32.96-9.46	-33.87-8.54	-35.1-7.93	-35.4-8.24	-34.48-9.16	-33.57-9.46	-32.96-9.46	-32.65-9.46	-32.96-9.77	-32.96-10.07	-32.35-9.16	-31.43-7.32	-30.82-4.58	-30.82-0.92	-31.432.44	-31.135.49	-28.387.93	-22.5811.29	-13.7317.4	-2.4429.6	11.649.74	29.676.9	55.85108.64	95.52142.82	144.04178.22	184.02213.01	185.55245.36	122.38274.05	-7.32299.99	-173.34326.54	-325.32359.19	-420.53400.39	-448.3447.39	-429.38492.25	-400.7525.21	-393.37538.33(R)	-413.51529.17	-445.25502.93	-466.92468.75	-469.06436.4	-462.34410.46	-470.58393.98	-510.56386.35	-580.14387.27	-660.1393.68	-732.42400.39	-789.49401.61	-835.88396.12	-877.38389.1	-915.83386.35	-948.18391.54	-969.85400.7	-978.39406.49	-972.6401.92	-950.32382.39	-906.68346.68	-834.96294.49	-729.68227.66	-594.79152.28	-44877.21	-314.0311.9	-209.96-39.37	-136.72-76.9	-80.26-104.98	-26.86-126.04	25.33-140.69	67.44-148.93	90.64-152.59	96.13-155.33	95.21-159	99.79-163.27	112.3-166.63	128.17-168.15	140.08-168.76	144.65-169.68	144.65-171.2	144.35-172.73	146.18-173.95	150.15-175.78	154.72-177.92	158.39-180.66	159.91-184.02	159.91-187.07	160.52-189.51	162.66-191.04	166.32-192.87	169.98-195.62	172.42-199.89	173.03-205.38	172.42-211.18	172.12-216.98	172.73-222.17	174.87-227.05	177.61-232.54	180.05-238.34	181.88-243.84	183.41-249.33	185.24-254.82	187.68-260.62	190.43-267.33	192.57-274.66	194.09-281.68	195.31-287.78	197.45-291.75	201.11-293.58	205.99-292.66	211.18-289.92	216.67-285.64	222.17-280.15	228.58-273.44	234.68-264.89	240.17-254.21	243.53-240.78	245.36-224.61	246.58-206.3	248.11-187.07	249.63-167.54	249.33-147.09	245.67-126.34	238.34-105.29	227.05-84.53	212.71-64.7	196.53-46.39	179.75-29.6	163.27-14.65	147.4-2.14	131.536.71	115.9713.12	101.9317.4	90.0320.75	80.5723.5	72.6324.72	64.3924.11	55.8521.67	47.9118.31	41.8115.56	37.8414.04	35.7113.73	34.7914.04	33.5714.04	32.3513.73	30.5212.51	28.6910.99	27.169.16	25.337.63	24.117.02	23.57.02	23.56.71	22.894.88	21.671.83	18.92-1.22	15.26-2.75	11.9-2.75	9.77-1.53	8.85-0.92	8.24-1.53	7.63-3.05	7.02-3.97	6.1-4.88	5.8-5.19	5.19-5.49	4.88-6.1	4.88-6.41	5.49-6.71	6.71-7.02	7.63-7.32	8.24-8.24	8.54-9.46	7.93-11.6	7.02-13.73	6.1-15.87	5.19-17.09	5.19-17.7	6.1-17.4	7.93-16.78	9.77-16.78	10.68-17.09	11.29-18.01	11.29-19.23	11.6-20.14	12.21-21.06	12.82-21.06	13.12-20.75	13.12-19.84	13.12-19.23	13.12-19.53	13.12-20.75	12.82-21.97	11.9-22.89	11.6-21.97	12.82-19.84	14.95-17.09	17.7-14.95	19.53-14.04	19.84-13.73	18.92-13.12	18.01-11.29	17.09-9.16	16.78-8.54	16.48-10.07	16.78-12.51	17.09-14.04	18.01-12.82	19.84-9.46	24.11-4.88	32.35-1.22	46.082.14	65.315.19	87.598.54	107.7311.9	121.1514.34	125.4315.26	122.9915.26	119.0214.34	119.0213.43	124.2113.73	131.8416.48	137.9421.36	140.3827.77	139.4734.18	137.0239.37	133.6743.95	127.5649.13	116.2756.46	97.9664.09	71.7268.66	42.1168.05	15.8761.95	053.1	-2.1444.86	7.3239.06	20.4533.87	29.327.47	27.4719.23	14.959.46	-3.970.92	-23.19-4.88	-35.71-7.32	-39.37-7.63	-36.62-7.63	-32.65-9.16	-31.13-12.82	-33.57-17.7	-38.15-21.36	-42.72-22.89	-45.17-21.97	-45.78-20.45	-44.86-18.92	-43.33-18.31	-41.5-18.62	-39.98-19.23	-39.06-20.45	-38.76-21.36	-38.76-21.97	-39.37-21.36	-39.37-19.84	-38.15-17.4	-35.71-14.95	-32.35-13.12	-30.21-13.12	-30.52-14.65	-32.65-16.78	-35.1-17.7	-35.71-17.09	-34.48-14.95	-31.74-13.12	-29.3-11.9	-27.47-10.38	-26.55-8.24	-26.86-5.19	-27.16-1.83	-26.551.22	-23.84.88	-17.0911.29	-5.4922.58	10.6839.98	31.1363.78	57.9893.99	95.52128.78	143.13166.63	185.85204.16	196.23238.04	146.18266.72	26.55291.14	-137.33316.47	-297.24348.21	-406.49389.4	-446.78437.62	-434.27484.92	-405.27521.24	-393.68538.02(R)	-410.77532.23	-441.89507.81	-465.7473.94	-469.67440.37	-462.65413.51	-467.83395.51	-503.85386.66	-570.68385.74	-651.55391.24	-726.32398.86	-785.52403.14	-832.52401.31	-873.41394.59	-911.25389.1	-945.13390.01	-970.76396.73	-983.89403.75	-982.97403.14	-965.27389.4	-927.43359.19	-862.73311.89	-765.08248.72	-635.38174.26	-488.2897.05	-348.2126.86	-235.29-28.99	-154.11-70.5	-93.08-101.01	-36.93-124.21	18.31-141.91	64.39-152.89	92.16-158.08	101.32-159.61	102.23-161.44	106.51-165.1	117.49-169.98	131.84-174.56	142.52-177.61	147.71-179.14	149.84-179.44	151.67-179.75	154.72-180.36	157.47-182.19	159.91-184.33	161.44-186.77	162.96-188.6	164.49-190.73	166.32-192.57	168.76-194.7	171.2-197.14	173.65-199.58	175.78-202.94	177.61-207.52	179.14-212.71	180.66-218.2	181.88-223.69	183.11-228.58	184.02-232.85	185.85-237.12	188.6-242.61	191.65-249.33	194.4-257.57	195.62-265.81	195.92-272.83	196.53-278.63	198.36-283.2	202.03-286.87	206.91-289.92	211.49-292.36	215.76-293.58	220.34-292.66	225.52-289.61	231.63-284.73	238.34-278.32	244.14-270.39	248.72-260.62	252.69-248.41	255.74-233.15	258.48-215.45	260.93-196.23	262.45-176.39	262.15-156.86	259.09-136.72	252.69-116.27	242.61-95.52	229.19-75.38	213.32-56.46	195.62-39.37	177.31-24.41	159.3-11.29	142.82-0.92	128.486.71	115.9712.21	103.7615.87	91.8617.7	80.8718.31	71.7218.01	65.6117.09	61.6516.17	58.5914.95	55.2414.04	51.8812.51	48.2210.99	45.479.46	43.037.32	39.985.8	36.624.27	32.963.36	30.212.14	28.690.92	27.77-0.61	27.47-2.14	26.55-3.36	25.02-3.97	23.19-4.27	21.97-4.27	21.06-3.97	20.75-3.36	21.06-3.05	21.06-3.97	20.45-5.49	19.53-7.02	18.62-8.24	17.4-8.24	17.09-8.24	17.09-8.54	17.4-9.77	17.4-11.29	16.78-12.21	16.17-12.82	15.56-13.73	15.26-15.56	14.65-17.4	13.73-19.53	12.82-21.06	12.21-22.28	12.51-23.19	13.43-23.8	15.26-24.11	17.09-24.41	18.62-24.41	20.14-24.72	21.06-25.02	21.36-25.63	21.97-25.94	22.58-26.55	23.5-27.47	24.11-28.08	23.8-28.08	22.28-27.47	20.14-26.55	18.62-25.94	18.92-25.33	20.14-25.02	21.36-24.41	21.97-23.5	21.36-21.97	21.06-20.75	20.75-19.53	20.75-19.23	21.36-18.92	21.67-18.62	22.28-18.01	23.8-16.48	26.55-14.04	32.04-10.99	42.42-7.32	59.2-2.75	80.261.22	101.623.97	116.885.8	123.66.71	123.67.63	121.469.16	122.6811.29	128.4813.43	136.4116.17	141.619.23	142.2122.89	139.4726.86	135.530.82	132.7535.4	130.6242.11	125.1250.35	112.9259.2	91.5565.61	62.8767.14	33.2662.56	11.954.32	3.9745.17	10.0737.84	24.4132.04	37.2325.63	40.8917.4	31.747.32	13.12-2.44	-8.54-9.46	-25.63-13.12	-33.57-14.65	-33.57-14.65	-29.91-14.34	-25.94-14.04	-24.11-14.04	-24.11-14.95	-25.33-16.48	-27.16-18.62	-28.69-19.84	-29.91-20.14	-29.91-19.23	-28.99-18.62	-27.77-18.01	-26.86-17.7	-26.55-18.62	-26.25-20.14	-26.25-22.28	-26.55-23.8	-27.47-23.8	-27.77-22.58	-27.16-21.06	-25.63-19.53	-23.5-18.62	-22.28-18.01	-21.67-16.78	-21.67-15.26	-20.75-14.04	-19.53-14.04	-17.7-14.65	-17.09-15.26	-17.4-14.65	-18.01-12.21	-18.31-7.93	-16.48-3.36	-12.510.31	-6.713.97	0.9210.38	12.2122.28	27.4741.2	48.8366.83	79.3598.57	122.07133.97	171.2171.51	207.82208.74	202.64242.31	131.53271.3	-4.27297.24	-171.51324.1	-319.52357.97	-408.94400.39	-432.13448.91	-412.6494.69	-387.88527.34	-385.44539.25(R)	-408.94528.56	-440.37500.79	-459.59466	-459.29434.27	-453.49410.46	-465.39396.42	-509.95391.24	-582.28393.68	-663.76400.39	-735.78406.8	-792.24407.71	-837.1402.22	-876.16394.9	-910.64391.85	-939.03396.42	-957.64405.58	-964.66411.68	-958.86407.1	-937.5387.27	-894.78350.65	-822.75297.55	-716.55229.49	-580.44152.59	-433.0475.68	-298.468.24	-194.09-43.95	-120.24-81.79	-62.87-109.56	-8.85-130.62	43.33-145.87	84.84-155.64	108.34-160.83	115.66-163.27	117.49-166.02	122.99-169.68	134.58-172.73	148.01-174.87	158.39-175.48	164.18-176.09	167.24-177.31	169.37-179.14	172.12-181.58	174.87-183.72	177-185.55	178.53-187.68	179.14-189.82	179.14-192.57	179.75-195.31	181.58-198.06	184.33-200.5	187.07-202.94	188.9-205.99	189.82-209.96	190.43-214.54	191.35-218.81	193.79-222.78	196.84-227.05	199.58-232.54	201.42-239.26	202.03-247.5	201.72-256.04	200.81-263.67	200.81-270.39	202.03-276.49	205.08-281.98	209.05-286.87	213.62-290.22	218.2-292.36	223.08-293.27	228.27-292.66	234.38-291.44	241.09-289	247.19-285.03	252.69-278.63	257.87-269.17	263.37-256.65	268.86-242.31	273.74-227.05	276.18-211.18	276.79-193.79	275.88-173.95	274.66-151.98	271.61-129.7	265.5-108.03	254.82-88.2	240.17-68.97	223.39-50.66	206.3-32.96	189.82-17.09	173.95-4.27	1594.88	144.9611.29	131.8415.56	120.2418.92	109.8621.67	101.0123.8	93.3824.41	87.2823.5	81.7921.06	76.617.7	72.3314.95	69.5813.12	68.0512.51	66.8311.9	64.711.29	62.2610.07	59.818.54	58.297.63	57.987.32	57.687.32	55.856.41	52.193.97	47.911.22	43.64-0.92	40.89-0.92	39.370.61	38.762.14	38.152.75	36.931.83	35.10	33.26-1.53	32.35-1.53	32.96-0.92	34.180	35.71-0.31	35.71-1.83	34.18-3.66	31.74-5.8	28.69-7.32	26.55-8.54	25.63-9.46	25.33-10.07	26.25-10.38	27.16-10.99	28.38-12.21	29.3-13.73	28.99-15.56	28.38-17.09	28.08-17.7	28.08-17.09	29.3-15.87	31.13-14.95	32.65-14.65	32.96-15.56	32.35-17.09	31.13-18.62	30.82-18.92	31.43-18.31	32.65-17.09	33.87-15.56	34.18-14.34	33.57-13.73	32.96-13.73	32.65-14.34	33.26-14.65	33.87-14.34	34.48-12.82	34.18-11.29	33.26-10.38	32.65-10.07	32.35-9.46	33.57-7.63	35.4-5.19	38.15-3.36	42.72-2.14	50.66-1.83	64.70	84.843.66	107.738.54	127.2612.82	138.5515.26	140.9915.87	138.8516.17	138.5517.09	144.0418.92	152.8921.36	159.6124.11	160.2227.16	155.6430.52	148.9334.48	143.4338.76	138.8543.95	131.8450.35	118.158.29	96.4465.61	68.9770.19	41.8169.58	21.6763.78	14.3455.85	19.5347.91	32.9641.2	46.3934.48	52.1926.86	46.3917.7	30.528.54	9.160.92	-10.38-2.75	-22.28-3.36	-24.72-2.75	-21.06-2.44	-16.17-3.66	-14.34-5.8	-15.56-7.63	-18.01-8.24	-19.53-7.63	-19.53-7.63	-18.92-8.24	-18.62-9.77	-18.92-11.29	-19.23-12.82	-19.23-13.43	-19.53-13.73	-19.84-14.04	-20.45-14.34	-20.75-14.04	-20.45-13.43	-19.53-12.82	-18.31-12.51	-17.09-12.51	-15.87-12.21	-14.65-11.6	-12.82-10.07	-11.29-8.85	-10.38-8.24	-10.38-8.85	-11.29-9.46	-11.6-9.16	-10.99-7.93	-9.46-4.88	-7.63-0.61	-6.713.36	-5.86.1	-4.278.54	0.3112.21	9.1621.06	22.5837.23	41.261.34	67.4491.86	104.68126.65	152.59163.57	197.45200.81	213.32235.9	170.9266.72	58.9293.58	-101.32319.82	-262.45350.95	-377.2390.01	-423.58437.01	-415.34484.62	-386.96523.68	-374.15544.13(R)	-390.32541.69	-424.19518.49	-453.19484.31	-462.04450.44	-455.63424.19	-456.24408.33	-485.84401.31	-548.71400.7	-630.49404.36	-709.84409.24	-774.23410.46	-823.97406.49	-865.17399.48	-902.1395.51	-934.14398.25	-958.86406.49	-972.9414.43	-973.82414.12	-958.86400.7	-923.46371.4	-861.82325.93	-768.43263.98	-643.31189.82	-498.66111.39	-357.0638.45	-239.26-20.45	-152.89-64.09	-89.42-95.52	-33.57-119.63	21.67-137.33	70.5-148.32	102.84-153.2	115.97-155.03	117.8-157.17	120.24-161.13	129.7-166.02	143.43-169.98	155.33-172.42	161.74-173.95	163.57-175.48	164.18-177.92	165.71-180.66	167.54-183.41	169.68-185.24	172.12-185.55	174.87-185.85	177.92-186.16	180.36-187.99	182.19-190.73	183.72-194.09	185.55-197.14	187.99-200.5	191.04-203.55	193.48-207.21	195.31-211.49	196.84-216.37	197.75-221.25	199.28-225.83	200.81-230.41	202.64-235.6	204.16-242	205.08-249.33	205.38-257.57	205.99-265.5	207.52-272.52	210.27-278.32	214.23-283.2	218.81-286.87	223.39-289.31	227.66-290.83	231.32-291.14	234.99-289.92	239.56-286.25	245.06-280.46	251.46-272.52	257.87-262.45	263.37-250.55	267.94-235.6	271.61-218.51	274.35-199.58	275.57-180.05	274.66-160.52	270.08-140.08	262.76-119.32	252.38-97.96	239.56-77.82	224.61-58.9	208.44-41.2	192.26-25.33	177-10.68	162.351.53	148.0110.07	133.3615.26	118.7118.01	105.2919.53	94.321.06	85.7521.97	79.0421.67	73.5519.23	68.3616.48	63.7814.04	60.4213.12	58.912.82	58.2912.21	57.6811.29	55.859.77	53.18.54	49.137.93	45.787.32	43.336.41	41.815.49	41.54.58	41.813.66	42.113.36	42.113.05	41.52.44	39.980.92	37.84-0.92	36.01-3.05	34.79-4.27	33.87-4.27	33.87-3.36	33.87-2.44	33.87-2.14	33.26-3.05	32.04-4.58	30.52-6.1	28.38-7.63	26.86-8.85	25.63-9.77	25.02-10.38	25.33-10.38	25.94-10.38	26.55-10.68	27.16-12.21	27.77-14.65	28.38-16.48	28.99-17.09	28.99-16.78	28.69-16.78	28.08-18.01	27.77-20.75	28.08-22.89	28.99-23.8	30.21-23.19	31.43-21.97	31.74-21.06	32.04-21.36	32.04-21.97	32.65-22.58	33.57-22.58	34.48-22.28	35.1-21.06	35.1-20.14	34.79-18.92	34.48-18.31	34.18-18.31	34.48-18.31	34.18-18.01	33.26-17.4	31.74-16.48	30.52-14.95	30.82-13.43	32.35-12.21	34.48-11.29	36.01-10.99	36.32-10.99	36.32-10.07	36.32-8.85	36.62-7.32	37.23-6.41	37.54-5.8	37.84-5.8	38.15-5.49	40.28-4.27	46.69-1.53	59.22.75	78.137.63	101.0111.9	122.3814.34	137.3315.26	143.1315.56	141.9116.78	139.1618.31	140.0819.53	145.8719.84	153.220.14	158.0821.67	15925.94	156.5631.43	152.8937.84	149.5443.95	145.2650.35	137.3357.37	122.6864.39	99.4969.58	70.1970.5	42.1166.53	22.5859.51	17.0950.96	24.4143.33	37.8436.32	48.8329.6	50.3521.67	40.8913.12	23.85.49	4.580.31	-10.38-1.83	-17.09-1.83	-16.48-0.92	-12.21-1.22	-8.54-3.05	-8.24-5.8	-10.38-7.93	-13.43-9.46	-15.56-10.99	-16.48-12.51	-16.48-14.65	-16.78-16.48	-17.09-16.78	-16.78-15.87	-16.48-14.65	-15.56-13.73	-14.65-13.43	-14.04-13.73	-13.43-14.04	-13.43-14.34	-13.73-14.65	-14.04-14.95	-13.73-14.34	-12.82-13.73	-10.99-12.82	-9.46-11.9	-8.54-11.9	-8.24-11.9	-8.54-11.9	-8.24-11.6	-7.63-9.77	-6.41-7.02	-4.58-3.36	-3.050.61	-1.833.97	-0.316.71	3.3610.99	10.6818.31	23.1931.43	40.2852.19	63.1779.65	95.52112.61	139.77148.32	188.9184.94	221.56220.34	207.82252.99	125.73281.68	-17.7307.92	-184.94336.3	-325.01371.09	-403.44414.12	-418.09461.43	-395.81505.07	-373.23534.06	-375.37541.99(R)	-401527.65	-431.82497.44	-448462.65	-445.86431.21	-442.2408.63	-461.12395.81	-515.14392.15	-596.31395.2	-682.07402.83	-754.39409.24	-808.72410.16	-850.22404.66	-886.84397.64	-921.02395.2	-950.01400.39	-969.54409.24	-975.95414.73	-966.8408.94	-940.25387.57	-891.42348.82	-813.29292.66	-701.29222.47	-562.13144.65	-414.7368.97	-282.94.58	-181.88-44.56	-110.17-80.57	-53.1-108.34	1.22-129.7	52.49-144.35	92.16-151.98	113.83-154.11	120.85-155.33	122.99-158.69	128.48-164.18	138.55-169.37	148.93-172.73	155.33-173.95	157.78-174.26	158.69-175.17	159.91-177	162.66-179.14	165.41-180.97	168.15-183.11	169.68-184.94	170.59-186.77	171.81-188.6	174.26-190.43	177.31-192.87	180.97-195.62	184.02-198.67	186.16-201.72	188.29-204.77	189.82-208.44	191.35-213.62	192.26-220.34	192.26-227.66	192.26-234.68	192.57-240.78	193.18-246.28	194.4-252.08	195.31-258.79	196.53-265.2	198.67-271.3	201.72-276.49	205.08-281.07	209.05-284.73	212.71-287.78	216.98-290.53	220.95-292.66	224.3-293.58	227.05-292.66	229.8-288.7	234.07-281.07	240.17-270.69	247.5-258.79	254.21-245.97	259.09-231.32	261.54-214.84	262.76-196.23	263.06-176.39	262.15-156.25	258.79-136.11	252.38-115.97	242.31-95.83	229.49-75.68	214.84-56.15	198.67-38.45	181.88-22.58	165.1-9.77	149.540.61	135.58.54	122.9914.04	111.3918.01	101.0120.14	91.5520.75	83.6220.14	76.919.53	71.7218.92	67.4418.92	64.3918.31	61.0416.17	57.3712.51	53.718.54	50.055.19	47.613.97	46.083.97	45.173.97	43.643.36	41.52.75	39.062.75	36.933.05	35.13.05	33.261.53	31.43-1.22	28.99-4.27	26.86-5.8	25.33-5.49	24.11-4.27	23.5-3.36	23.19-3.36	22.58-3.97	21.36-4.88	20.45-5.8	19.23-6.41	18.01-7.02	17.4-7.93	16.78-8.85	15.87-10.68	14.65-12.21	13.43-13.43	12.82-14.04	12.82-14.34	13.73-14.65	14.65-15.87	15.26-17.7	15.56-19.84	15.56-22.28	15.87-24.72	15.56-26.86	14.95-28.38	14.34-28.99	14.65-28.69	15.87-28.08	17.4-27.77	18.62-27.47	18.62-27.77	18.31-27.47	17.7-27.16	17.4-26.55	17.4-26.25	18.01-25.63	18.92-25.33	20.14-24.72	21.36-24.11	22.28-23.5	22.58-22.58	22.28-21.97	21.36-21.67	20.14-21.67	19.53-21.67	19.84-21.36	20.75-20.45	21.67-19.23	21.97-18.31	21.67-17.7	21.67-17.4	21.67-17.4	21.97-16.78	22.28-15.87	22.89-14.34	24.72-13.12	28.69-11.9	35.71-10.38	47-7.63	63.78-3.66	84.530.61	105.293.66	120.245.19	125.734.88	123.93.97	120.243.66	121.154.58	127.876.41	137.338.85	143.1311.9	143.4315.56	139.1619.84	133.6724.41	128.7830.21	123.2937.54	114.4446.39	98.8854.93	75.9960.73	47.6161.34	20.7556.46	3.0547.91	-0.3139.06	8.8531.43	24.1124.72	35.7117.7	36.939.46	26.250.92	7.93-6.41	-11.6-11.6	-26.25-14.95	-33.26-17.4	-34.18-18.62	-32.35-19.23	-30.82-18.92	-30.52-18.62	-31.13-19.23	-32.04-21.06	-33.26-23.5	-35.1-25.94	-37.54-27.47	-38.76-28.08	-38.76-27.77	-36.93-27.47	-34.48-27.47	-32.65-28.08	-32.04-28.99	-32.65-29.6	-33.57-29.6	-33.87-28.99	-33.26-28.08	-32.65-27.16	-32.04-25.94	-31.43-24.72	-30.82-23.5	-30.21-21.97	-28.69-20.75	-27.16-20.14	-25.94-20.75	-25.94-21.36	-26.55-21.06	-27.47-18.92	-27.47-15.87	-26.55-12.82	-24.11-11.29	-20.45-9.77	-14.65-5.8	-5.493.66	7.6321.06	26.2545.47	51.8874.77	88.2107.42	136.11142.52	184.33179.44	208.74215.45	179.14247.8	79.96275.27	-73.55300.9	-237.73330.51	-363.16368.96	-422.06415.65	-422.67463.87	-396.73504.15	-380.25527.34	-391.24528.56(R)	-422.06510.25	-450.74479.13	-461.73445.25	-457.15415.95	-458.68394.9	-488.28383.61	-552.37381.16	-637.21385.74	-720.52393.37	-787.05398.25	-836.49396.73	-875.85390.32	-910.34384.52	-941.77385.13	-967.1391.85	-982.67399.78	-985.41401.31	-972.6390.63	-939.64364.69	-881.65322.27	-793.15262.76	-673.22189.51	-531.92110.47	-390.0136.32	-269.17-24.11	-178.83-68.36	-112.92-100.4	-56.46-125.12	-1.53-144.35	47.91-157.78	82.09-165.71	96.13-169.68	97.96-172.12	99.49-174.87	108.03-177.92	122.07-180.05	134.89-181.88	142.21-183.11	144.35-184.63	144.96-185.85	146.79-186.77	150.15-187.99	153.81-189.51	156.25-192.26	157.17-195.01	156.86-197.75	156.56-199.58	157.47-200.81	159.61-202.03	162.96-203.86	166.32-207.21	169.07-211.79	170.29-217.29	171.2-222.78	171.81-227.66	172.73-232.54	173.95-237.73	175.17-243.53	176.39-249.94	177.61-256.35	178.53-262.45	179.14-268.55	179.44-274.66	179.75-280.46	180.66-286.25	183.11-292.05	186.77-297.85	190.73-302.73	195.31-304.87	199.89-304.26	204.77-301.21	209.96-296.94	215.45-292.05	220.95-286.25	226.44-278.63	232.24-268.25	237.73-255.13	242.31-240.78	244.14-224.91	243.53-207.52	241.39-187.38	239.26-165.41	236.82-142.52	232.24-120.54	224.3-100.1	212.71-80.87	198.06-62.56	182.19-45.78	166.02-30.52	149.84-18.01	134.28-7.93	119.93-0.61	107.124.88	96.138.24	86.9810.38	79.3511.9	73.2413.12	68.3613.12	64.0912.51	59.5110.99	54.638.54	50.055.8	46.693.36	44.251.53	43.030.31	42.42-0.31	41.2-0.92	39.67-1.53	37.54-1.83	34.79-2.14	32.65-2.44	30.52-3.36	29.3-4.58	28.08-6.71	26.55-8.85	24.72-10.68	22.89-11.6	21.36-11.6	20.14-11.29	19.53-10.99	19.53-10.38	20.45-9.77	21.36-9.46	21.97-10.38	21.06-12.51	18.92-15.56	15.87-18.01	13.12-18.92	12.21-18.62	13.12-18.62	14.65-19.23	15.87-21.06	16.17-23.19	15.87-24.72	15.87-25.33	16.17-25.33	16.48-25.33	16.78-26.55	16.48-28.08	16.17-29.6	15.56-30.52	15.56-30.21	16.48-29.6	17.4-29.3	18.01-29.6	18.01-30.52	17.4-30.82	16.17-30.82	14.95-30.21	14.65-29.91	14.95-30.21	15.87-30.21	17.09-30.21	18.31-29.3	19.23-28.38	19.84-27.77	20.45-28.08	20.45-28.38	19.84-28.69	18.92-28.38	18.31-27.47	18.31-26.25	18.62-24.72	19.53-22.89	21.36-21.36	25.33-20.14	32.35-18.62	44.86-15.87	62.87-11.6	84.84-6.1	106.51-1.22	121.771.22	127.560.31	125.43-1.83	121.46-3.05	121.77-1.83	128.481.22	137.335.19	142.828.85	141.9113.12	137.0218.01	131.8424.11	128.7830.82	125.4338.15	116.8846.08	100.152.8	74.1657.07	44.5656.76	18.3151.57	3.0543.03	1.5334.48	10.9927.16	24.4120.75	33.8714.34	33.266.1	21.97-2.44	4.27-10.07	-14.65-14.95	-28.69-17.4	-34.48-18.31	-33.57-18.92	-29.6-19.23	-25.94-19.23	-24.72-18.92	-25.02-19.53	-25.63-20.75	-26.55-23.8	-27.47-27.16	-28.38-29.6	-28.38-30.52	-27.77-29.91	-26.55-28.99	-25.94-28.69	-27.16-28.99	-28.99-28.69	-29.91-28.08	-29.3-26.86	-27.47-26.25	-25.63-27.16	-24.41-28.69	-24.11-29.91	-24.11-30.21	-23.5-28.99	-21.97-26.86	-20.14455.93	-475.16422.06	-468.14394.29	-469.06375.67	-498.35365.91	-559.08364.38	-634.46370.18	-703.13378.11	-754.39382.08	-792.24378.11	-825.2368.35	-859.07358.89	-893.86355.53	-924.68358.58	-946.04363.77	-953.37364.07	-943.91354.92	-913.39332.34	-855.71294.49	-765.38240.17	-642.4172.12	-498.3597.96	-356.7528.38	-239.87-27.16	-155.64-66.83	-95.52-95.21	-42.72-117.19	11.6-134.89	62.56-147.4	98.88-153.5	115.66-155.33	119.63-156.56	122.38-159.3	130.92-163.57	144.35-167.24	156.56-169.37(R)	163.88-169.98	166.63-169.37	168.15-168.76	171.2-169.37	174.87-171.2	178.83-174.56	181.58-177.61	183.72-179.44	185.85-180.36	188.6-180.97	191.65-182.8	193.48-185.85	194.09-189.51	193.79-192.87	194.7-195.01	197.14-196.53	201.11-198.97	204.77-203.55	206.6-209.96	207.21-217.9	207.52-225.83	208.74-232.54	210.57-238.65	212.1-244.75	213.32-250.85	213.93-256.96	214.84-263.06	216.67-269.78	219.12-276.49	222.17-282.59	224.91-287.78	227.97-291.14	231.02-293.27	234.99-293.88	239.56-292.66	244.45-289.61	249.63-283.81	254.21-275.57	259.09-265.81	263.98-253.91	269.47-240.78	274.66-225.83	278.93-209.05	281.37-191.35	281.37-172.42	278.93-152.89	274.35-131.84	267.64-110.47	259.7-89.11	249.63-68.97	237.73-51.27	223.08-35.71	206.6-22.58	188.9-10.99	172.12-0.92	157.177.32	144.6513.12	134.2817.09	125.1218.92	115.9719.84	107.7320.75	101.0121.67	96.7421.97	94.320.14	91.8615.87	88.510.07	84.235.19	80.573.36	78.434.88	77.827.63	77.219.16	75.078.54	72.337.02	69.585.19	67.754.58	66.533.97	65.313.05	63.172.14	61.041.83	59.21.83	57.681.22	55.540.31	53.41-1.53	51.88-3.05	50.66-4.27	49.74-5.49	48.83-7.02	47.91-7.93	47.61-8.24	48.83-7.02	50.35-5.49	50.66-4.58	50.05-5.19	48.22-6.71	47-8.85	46.39-10.38	46.08-11.9	46.08-12.82	45.78-13.73	46.08-14.34	46.39-15.26	46.39-16.17	46.39-16.78	46.08-16.48	46.08-15.87	46.69-15.26	47.61-15.26	48.22-15.87	48.52-16.78	48.22-18.01	47.91-19.23	48.22-20.14	49.13-20.45	50.35-19.84	50.66-18.92	50.35-17.7	50.05-16.78	50.05-16.17	50.96-15.87	52.19-15.87	52.49-15.56	51.57-15.26	50.35-15.26	49.74-14.95	50.66-14.34	52.8-13.43	55.54-11.6	57.37-9.77	57.68-9.16	56.76-9.16	55.24-10.07	54.02-10.99	53.41-11.29	52.8-10.99	52.49-10.99	51.88-10.99	51.57-10.99	51.27-11.29	51.57-10.68	51.57-9.77	52.49-8.24	54.63-6.41	60.12-3.97	70.5-0.61	86.983.05	107.426.71	127.269.16	140.9910.38	146.4810.38	146.4810.68	146.1811.9	149.8414.04	156.8617.09	161.4420.45	161.1323.8	155.9428.08	150.4532.04	147.7136.32	148.0139.98	147.7144.25	140.9950.35	124.5157.68	97.9663.78	65.9265.92	36.9363.17	19.8456.46	18.3148.83	28.6942.72	42.7237.54	52.4931.74	54.0223.8	46.3914.04	32.964.88	16.48-1.53	1.53-4.27	-8.54-4.58	-12.51-4.58	-11.9-4.88	-10.07-6.1	-9.77-7.63	-11.29-9.16	-13.43-10.38	-14.34-10.99	-13.73-11.29	-11.9-12.21	-10.99-14.04	-10.68-15.56	-10.99-16.17	-11.29-15.87	-11.29-14.95	-10.99-13.73	-11.29-13.43	-12.21-13.73	-12.82-14.04	-12.51-13.43	-10.99-12.51	-9.16-10.99	-7.63-10.07	-6.41-9.46	-5.8-9.77	-5.8-10.07	-5.49-10.68	-4.88-10.68	-4.27-9.77	-3.36-7.32	-3.36-3.97	-4.270	-4.273.97	-2.447.32	3.3612.21	12.8220.75	25.6335.4	41.256.76	60.7383.92	89.72115.66	131.53150.45	179.14186.77	209.05222.78	190.12255.13	101.32282.59	-48.52307.31	-218.2333.25	-356.75365.3	-429.99405.88	-438.84450.74	-412.6491.33	-389.1518.49	-392.15524.60(R)	-421.14509.03	-455.63478.21	-475.46442.81	-474.55411.38	-468.44388.79	-480.96375.37	-525.21370.18	-594.79371.7	-669.25377.5	-730.59382.69	-774.54382.69	-807.8375.98	-838.93366.82	-872.8360.72	-907.59361.94	-937.81367.74	-955.81372.31	-957.34368.65	-938.42352.48	-895.69321.66	-823.67274.35	-718.38212.1	-583.5140.08	-436.167.44	-301.213.97	-196.53-43.95	-123.29-77.82	-68.36-102.84	-17.4-122.99	32.96-138.55	75.07-148.01	101.32-151.67	111.69-152.28	114.75-153.81	119.63-157.47	129.39-162.05	140.69-165.1	150.15-166.32	155.94-166.93	159.91-167.85	162.96-169.68	165.71-172.42	167.85-174.56	169.07-175.78	169.37-176.39	169.07-177	168.46-178.22	169.07-180.97	171.81-184.02	176.7-186.77	182.19-189.51	186.46-191.65	188.29-194.4	188.29-197.45	188.29-201.11	189.21-205.99	191.04-211.79	192.87-218.51	193.79-226.14	193.79-233.15	194.09-238.95	195.31-243.84	197.45-249.33	199.58-255.74	200.5-263.67	200.2-271.3	199.89-278.02	200.5-282.9	202.94-286.56	207.52-289.61	213.01-291.75	218.2-292.66	222.78-291.14	226.75-287.17	231.02-281.07	235.6-272.83	240.17-263.37	244.45-252.08	247.8-238.65	250.24-222.78	252.69-204.77	254.52-184.94	255.13-164.49	252.99-143.74	248.11-123.6	240.78-103.45	231.93-83.31	222.17-63.17	210.88-44.25	196.53-27.16	179.14-13.12	159.91-1.83	142.527.02	129.0914.34	119.3219.84	111.3924.11	103.1526.55	94.327.47	86.3627.47	79.3526.25	73.5524.72	68.6622.89	64.721.06	61.6519.23	59.5117.7	58.5916.17	57.3714.95	55.5413.12	52.811.6	49.749.77	478.24	45.177.63	44.567.63	44.568.24	43.958.24	41.57.02	38.155.8	34.794.88	32.654.58	32.045.19	31.434.88	30.213.97	28.382.14	26.860.92	26.250	26.250.31	26.550.31	25.940	24.72-0.92	23.8-1.83	23.8-3.36	24.41-4.88	25.94-7.02	26.86-9.16	26.86-10.68	25.63-11.29	24.41-10.68	24.41-10.07	25.33-9.46	27.47-9.46	28.99-10.38	29.6-12.21	28.69-14.95	27.16-17.4	25.94-18.92	25.33-18.62	26.25-17.4	28.69-16.17	31.43-15.87	33.57-16.78	34.48-17.4	33.57-16.78	32.35-15.26	31.43-13.43	31.74-12.21	32.96-11.9	34.48-12.51	35.4-12.51	35.1-12.21	33.57-10.99	31.74-9.77	30.82-8.54	31.13-8.24	32.96-8.24	35.1-8.85	36.32-9.46	36.62-9.46	35.71-8.85	34.48-7.93	33.57-6.71	33.57-6.1	34.79-5.49	36.32-4.88	37.23-4.58	36.93-4.58	36.01-4.27	34.79-3.66	34.79-3.05	35.4-2.44	36.01-2.44	36.32-2.14	37.23-1.22	42.110.61	52.84.27	69.588.54	90.6412.82	110.7816.48	125.4318.31	132.7518.92	133.9718.62	134.2818.92	137.0220.45	141.9123.19	144.3526.25	142.2129.3	136.4132.04	130.9235.4	128.4839.98	129.3945.17	129.750.96	123.2957.68	106.5164.7	79.9669.89	48.2271.41	20.4568.36	4.2761.95	3.3654.63	13.4348.83	26.8643.64	36.6236.93	38.4528.38	31.7418.92	18.9210.99	2.755.8	-12.513.36	-22.891.83	-27.160	-26.55-1.83	-24.41-3.05	-23.19-3.66	-23.19-3.97	-23.8-4.27	-24.11-5.19	-24.11-6.71	-24.41-8.54	-24.41-10.07	-24.41-11.29	-24.41-11.29	-24.11-10.68	-23.5-10.07	-22.58-9.46	-21.36-9.46	-19.84-9.46	-18.31-10.07	-17.4-10.38	-17.4-10.38	-18.01-9.77	-18.62-8.85	-19.53-8.24	-20.45-8.24	-21.06-8.24	-20.75-8.24	-19.84-7.32	-18.31-5.49	-17.09-3.05	-16.78-0.61	-17.091.53	-17.093.36	-14.656.1	-9.4611.6	021.67	13.1238.45	29.361.04	49.4488.5	77.82119.63	118.41153.5	163.88189.51	191.96225.52	171.81258.48	82.7285.95	-66.83310.67	-236.51337.22	-375.06371.09	-449.52413.82	-460.51460.21	-435.79501.71	-412.6528.26	-415.65533.14(R)	-443.42516.66	-476.68485.53	-495449.83	-492.86418.4	-484.92395.51	-495.61381.47	-537.41375.98	-603.94377.2	-675.35383.61	-734.56389.71	-778.2390.93	-813.29385.44	-848.08376.89	-885.62371.4	-922.85372.62	-952.76378.11	-969.54381.47	-969.54375.98	-949.71357.06	-906.37323.49	-834.35274.66	-728.76212.1	-593.87141.3	-44870.5	-315.559.16	-213.93-37.54	-143.13-71.11	-88.81-97.05	-36.01-117.8	18.01-133.67	62.87-143.74	89.11-148.32	97.35-150.15	97.96-152.28	101.62-155.64	112.3-159.61	126.04-162.96	136.72-165.1	141.91-166.63	143.43-167.85	144.35-168.46	146.48-169.37	149.54-170.29	152.28-171.51	154.72-173.03	156.86-174.87	159-177	161.44-179.44	163.57-182.5	165.41-185.55	167.24-189.21	168.76-192.87	170.9-196.23	173.03-200.2	174.87-204.16	176.39-208.13	177-212.1	177.61-216.67	178.22-221.86	179.14-228.58	179.14-236.82	178.83-245.67	178.22-253.3	178.53-259.09	180.05-264.28	182.8-269.47	186.16-275.27	189.21-281.68	191.65-287.48	193.79-291.44	195.92-293.27	198.97-293.27	203.25-291.14	208.74-287.17	215.15-281.37	221.25-273.74	225.83-264.89	229.8-254.21	232.85-241.39	235.9-226.44	238.65-209.05	239.56-190.43	238.95-170.9	236.51-150.45	232.54-129.09	227.36-107.42	220.03-85.75	209.05-64.7	194.4-45.47	176.7-28.08	159-13.12	143.13-0.92	130.318.54	120.5415.56	11220.75	103.7625.02	95.2128.38	86.9830.52	79.6531.43	73.5530.52	68.0528.08	63.1725.02	58.5922.28	54.9320.75	53.120.14	53.119.53	53.7117.7	53.114.65	51.2711.6	48.839.46	47.619.16	48.229.46	48.839.77	47.919.16	44.567.93	40.596.71	37.235.8	35.715.19	35.44.27	34.793.66	33.872.75	32.962.14	32.351.22	31.740	31.13-1.22	30.21-1.83	29.3-1.83	29.3-1.53	29.91-1.53	30.82-2.14	32.04-3.36	33.26-5.19	34.48-7.02	35.4-8.24	35.4-9.46	34.48-10.38	33.26-11.6	32.04-13.12	31.74-14.65	32.35-15.26	33.26-15.26	34.79-14.65	36.32-14.34	37.84-14.34	39.06-15.26	39.67-16.17	39.06-17.4	37.54-18.01	35.71-18.01	34.79-17.4	35.1-16.17	36.32-14.95	37.23-14.04	37.54-13.12	36.93-12.82	36.01-12.51	36.01-12.21	36.93-12.51	37.84-12.51	38.76-11.9	39.37-10.99	39.37-10.07	39.37-9.46	39.67-9.16	39.98-8.85	40.59-8.54	40.59-8.54	40.59-8.85	40.28-9.16	40.28-8.85	40.59-7.63	41.5-5.49	42.42-3.66	42.72-2.75	42.42-3.66	41.81-5.19	41.2-6.71	40.89-7.32	41.81-6.41	43.33-4.88	45.17-3.66	47-2.44	50.96-0.31	59.813.97	75.689.46	97.6614.65	119.9317.7	136.1117.4	143.1315.56	142.8214.04	141.314.04	143.4315.87	149.2318.31	153.220.75	152.2823.8	147.7128.08	142.8232.96	141.338.15	143.1342.72	144.0447	138.2453.1	122.6860.12	98.2765.92	68.3667.75	40.5964.7	21.9758.29	17.0950.66	24.1144.56	36.9339.37	48.2233.26	52.4924.72	47.6114.04	35.43.97	18.62-2.75	2.44-6.1	-8.54-6.71	-12.21-7.02	-9.77-7.63	-5.19-8.85	-1.83-10.07	-0.92-11.29	-2.14-12.21	-3.97-13.12	-5.49-14.34	-6.41-15.56	-6.41-16.78	-5.49-17.4	-4.27-18.31	-3.97-19.23	-4.58-20.14	-5.19-20.45	-5.49-19.84	-4.58-18.31	-3.36-17.4	-2.14-17.4	-2.14-18.01	-2.14-18.92	-2.14-19.23	-1.53-18.92	-0.61-18.31	0.31-18.01	1.53-17.09	3.05-16.17	4.27-14.34	5.49-12.21	6.1-9.77	6.71-7.02	8.24-3.97	11.29-0.92	16.483.66	23.811.29	33.8724.41	4744.25	6571.11	91.55102.84	130.92137.94	179.44174.87	218.81211.79	218.81246.28	152.89275.88	18.62300.9	-151.98325.62	-307.01354.92	-404.66392.76	-433.96437.62	-415.95481.87	-387.27515.44	-379.33529.48(R)	-400.09520.63	-434.27493.47	-459.29458.07	-463.26423.89	-453.49397.95	-452.27381.47	-479.13374.45	-534.36375.06	-602.72381.16	-665.59387.88	-715.33390.01	-756.23385.13	-795.29375.98	-835.57368.65	-875.24367.13	-909.12371.09	-931.7375.67	-938.72373.84	-927.12360.41	-893.86332.64	-832.82289	-739.75229.8	-615.23159.61	-471.886.98	-332.6421.67	-219.42-29.91	-138.24-67.14	-79.04-94.91	-25.94-116.88	28.69-134.58	77.51-146.48	110.47-152.28	123.9-154.42	126.65-155.64	130-158.39	140.08-162.05	154.72-165.41	166.93-168.15	173.34-170.29	175.48-171.51	176.39-172.73	178.53-173.95	181.58-175.78	184.63-178.22	186.46-180.97	187.38-183.41	187.99-184.94	189.51-185.85	191.65-187.07	194.09-189.21	196.53-191.96	198.06-195.62	198.67-199.89	198.67-204.16	198.67-208.13	198.97-212.71	199.58-217.59	200.81-223.08	202.03-229.19	203.25-235.29	204.16-241.09	204.77-246.89	205.38-252.99	206.6-259.7	208.13-266.72	210.27-273.44	212.71-279.24	215.45-284.73	217.9-289.92	220.34-294.49	222.78-297.85	226.14-298.77	230.41-296.94	236.21-292.97	242.31-287.48	248.41-281.37	252.99-274.35	256.35-266.11	258.79-255.13	260.62-241.09	262.45-223.39	264.59-203.86	266.42-183.41	266.11-162.96	263.06-143.13	257.26-122.68	249.33-101.93	239.26-81.18	227.05-61.34	212.4-43.64	196.23-27.77	179.75-14.34	164.79-3.05	151.985.8	141.311.9	132.1416.17	123.619.23	115.6621.36	108.9522.89	103.4523.5	99.1823.19	95.8321.97	93.6920.45	92.1619.23	90.9417.7	90.0316.17	89.1114.34	87.5912.51	85.1410.68	82.48.85	79.657.63	77.516.41	75.995.8	74.775.49	73.555.19	71.724.88	69.584.58	67.754.27	66.223.97	65.613.66	653.36	64.392.75	62.871.83	61.340.61	59.81-0.92	58.59-2.75	57.07-4.58	55.54-6.1	54.02-7.02	53.71-7.32	54.93-7.02	56.46-7.02	58.29-7.63	59.2-8.85	58.9-10.38	58.29-11.9	57.68-13.73	57.07-15.26	56.76-16.48	56.76-17.4	57.07-17.4	57.37-17.09	58.29-16.78	59.51-16.78	61.04-16.78	62.87-17.09	63.48-17.7	63.17-18.62	62.26-19.23	61.95-19.53	62.56-19.53	63.17-19.84	63.48-19.84	63.17-19.84	62.87-19.53	62.87-18.31	63.48-16.78	64.7-15.56	65.61-14.34	66.22-13.43	66.53-12.51	66.22-11.9	65.61-11.9	65-12.51	64.39-13.43	63.78-14.04	62.56-13.73	61.95-12.51	62.26-10.99	63.48-9.16	65-7.93	65.92-7.63	65.61-7.93	64.39-8.54	63.17-9.16	62.56-9.16	62.56-7.93	63.17-6.71	63.48-5.8	63.17-5.8	62.87-6.41	62.26-7.02	61.65-6.71	61.04-5.8	61.34-4.27	65-2.14	74.461.53	90.945.8	113.2210.07	135.812.51	152.5913.12	161.1311.9	162.9610.99	162.6610.99	165.112.21	170.2914.95	174.5618.92	175.1723.8	171.5128.99	166.6333.26	163.2736.62	162.0539.98	160.2244.56	153.8151.57	138.8559.51	114.7565.61	84.8467.14	55.8563.48	36.0155.85	30.5248.22	38.4543.03	53.4139.67	66.8335.4	72.0227.77	66.5317.7	52.497.02	34.79-0.92	18.31-4.88	8.24-6.41	5.19-6.71	7.02-7.02	9.46-7.32	10.07-7.63	8.85-8.54	6.71-10.07	5.49-12.82	5.19-15.87	5.19-18.01	5.19-18.62	5.8-17.7	6.1-16.48	6.71-15.26	6.71-15.26	6.1-16.17	3.97-17.7	1.83-19.23	0.61-19.84	0.61-19.23	1.83-18.31	3.66-17.7	4.88-17.4	5.49-17.09	6.1-16.78	7.32-15.56	8.24-14.04	9.16-12.51	9.16-11.29	8.24-10.07	6.41-8.85	4.88-7.02	4.88-4.27	7.02-0.31	12.514.88	20.7513.73	32.0427.47	45.7847.3	63.1772.94	87.59103.15	124.21136.11	170.29171.2	208.13206.6	207.82239.87	142.21269.47	9.16296.94	-160.52325.32	-315.25358.28	-412.6397.34	-442.2440.67	-425.11481.87	-397.64512.7	-389.1526.43(R)	-407.41518.8	-438.23493.47	-459.9459.29	-461.12425.11	-449.22397.64	-446.78379.33	-472.72370.48	-528.56369.87	-598.14375.98	-662.23383.61	-712.28387.57	-752.56384.22	-791.32376.59	-832.52369.87	-874.33368.65	-911.25372.31	-936.58375.98	-945.43373.84	-934.45360.72	-899.05334.47	-835.27292.97	-738.83235.6	-611.57166.63	-467.5393.38	-328.9826.55	-216.67-27.47	-136.72-66.83	-78.13-95.83	-25.02-118.71	30.21-136.41	80.26-148.01	113.83-153.5	127.56-155.33	129.7-156.25	132.45-159	142.52-162.66	156.86-166.02	169.07-168.76	174.56-170.59	175.17-172.12	174.56-173.95	175.48-175.48	177.92-177	180.66-178.22	182.8-179.75	184.63-180.97	186.46-182.5	188.9-184.33	191.65-186.46	194.4-189.21	196.23-192.26	197.45-195.92	198.67-199.89	199.89-204.47	201.42-208.74	203.25-212.4	205.38-216.37	206.91-221.25	207.52-227.05	207.21-234.07	206.6-241.39	206.3-248.72	206.91-255.43	208.44-262.15	210.27-268.25	212.4-274.05	214.84-279.54	217.9-284.73	220.64-289.31	223.08-293.27	225.22-296.33	226.75-297.85	228.88-297.85	231.02-296.33	234.07-292.66	237.73-287.17	242.61-279.24	247.8-268.55	252.99-255.43	256.96-239.87	259.09-223.39	259.7-206.3	259.09-188.9	257.87-170.9	255.43-151.37	250.85-130	243.53-108.34	233.15-86.98	220.34-67.14	205.69-49.74	191.04-34.48	176.39-21.06	162.66-9.77	149.84-0.31	138.247.02	127.5612.21	117.815.26	108.6416.78	100.7116.78	94.316.48	90.0315.56	87.5914.04	86.3612.21	84.8410.38	83.318.54	81.187.63	79.657.32	79.357.32	79.047.32	78.136.71	75.995.8	73.245.19	70.194.58	67.753.97	65.922.75	63.781.22	60.73-0.61	57.98-2.14	55.24-2.75	53.41-2.75	51.88-3.05	50.66-3.97	49.44-5.19	48.22-6.1	47.61-6.41	47.61-6.41	47.61-7.32	47.3-8.85	46.69-10.38	45.78-10.99	45.47-10.38	46.39-9.16	47.61-8.54	48.83-9.16	49.44-10.68	49.44-12.51	48.83-14.34	47.91-15.87	47.61-17.4	47.91-18.92	48.83-19.84	50.05-20.14	50.66-20.14	50.66-20.14	50.35-20.45	50.05-21.36	50.35-22.28	50.66-22.89	50.66-22.89	51.27-21.67	52.19-20.75	53.41-20.14	54.02-20.75	54.32-21.97	54.32-22.89	54.32-22.89	54.93-21.97	56.15-21.06	57.37-20.14	57.98-19.53	57.98-19.23	58.29-18.62	58.9-18.01	59.51-17.4	60.12-17.09	60.12-16.48	59.81-16.17	58.9-15.87	57.98-15.87	57.98-16.17	58.9-16.17	60.73-15.26	62.56-14.04	63.78-12.21	64.09-11.29	64.39-10.99	64.7-11.29	65.61-12.21	66.53-12.51	66.83-12.21	66.22-11.29	65.92-9.46	67.75-7.02	73.85-3.66	86.060	104.373.66	125.736.41	145.267.63	158.087.63	163.277.32	163.888.24	165.4110.07	169.6812.21	174.8714.34	176.0916.78	172.1219.84	166.3223.8	163.2728.69	164.7933.57	168.4639.06	168.7645.17	160.2252.49	140.9959.51	112.9263.48	81.7962.26	56.4655.85	43.3347.3	44.2539.67	54.9335.1	67.1431.74	74.7726.86	73.2418.31	62.877.02	45.78-3.36	25.33-10.68	7.63-13.43	-2.75-13.73	-4.88-13.43	-1.53-13.73	3.05-14.65	5.19-15.87	3.97-17.7	1.83-19.23	0.92-20.75	1.53-21.67	3.97-21.97	8.54-21.67	14.95-21.36	21.36-21.97	26.55-23.5	28.38-24.41	26.55-24.41	22.89-23.5	18.92-22.89	14.95-22.58	11.6-23.19	9.77-23.5	10.07-23.19	11.9-21.67	13.73-20.75	13.73-20.45	12.82-21.36	12.82-21.67	15.56-21.06	20.45-18.62	22.89-15.26	20.75-12.21	14.95-10.38	9.46-9.16	9.46-7.02	17.4-0.92	32.0410.99	49.7429.3	68.0553.71	89.7282.7	121.77115.05	166.02150.45	210.88187.07	228.88222.17	189.21252.69	78.13278.93	-84.23303.65	-251.46332.64	-375.67369.26	-433.04412.9	-433.96457.46	-410.16493.77	-393.07513.92(R)	-398.86512.7	-420.84491.64	-441.28458.07	-446.78421.75	-439.15390.32	-436.71368.65	-458.68357.06	-509.95354.61	-576.78358.89	-640.56365.6	-690.92368.96	-731.2365.6	-771.18357.06	-814.82349.12	-861.21347.9	-903.63353.39	-934.14360.72	-947.88362.55	-940.25354	-908.81331.73	-851.75294.19	-766.91241.09	-653.69173.95	-519.71100.4	-380.8630.82	-256.35-25.94	-158.69-67.44	-86.06-97.96	-27.47-122.99	26.55-144.04	75.07-159.3	111.08-167.24	130-170.59	136.72-172.42	142.21-175.78	151.98-180.05	165.41-183.11	176.39-184.02	181.88-184.33	183.41-184.94	184.63-187.07	186.46-190.73	187.99-194.09	188.29-196.84	188.29-197.75	189.82-197.45	192.57-197.45	195.62-198.67	196.84-201.72	194.4-205.69	188.6-209.35	182.5-212.4	181.58-215.15	189.21-218.51	203.55-223.08	217.9-228.27	224.91-233.76	221.86-238.65	213.32-243.53	206.3-249.02	205.08-256.04	208.13-264.28	213.01-272.52	217.59-279.24	222.17-285.03	227.66-289.92	232.54-295.41	235.6-301.82	235.9-308.23	235.29-313.42	236.82-316.77	241.09-318.6	245.97-318.91	248.11-318.3	246.89-316.47	245.36-313.11	248.11-307.01	256.96-298.16	268.86-286.25	277.71-272.22	280.15-256.04	277.71-238.34	274.05-219.42	271-199.58	269.47-179.14	266.42-157.78	259.4-135.5	247.8-113.53	233.76-92.47	219.12-73.55	205.08-57.37	190.73-43.95	174.56-32.65	156.56-23.19	138.55-15.26	125.73-9.16	119.63-4.88	118.41-2.44	117.49-1.22	113.53-0.92	105.9-1.22	97.96-2.44	92.77-4.58	90.33-7.32	90.33-9.46	92.16-10.07	94.91-9.77	97.35-9.16	97.66-9.77	94.3-11.29	88.5-12.82	83.01-13.73	80.57-13.12	81.18-12.51	82.7-12.21	83.62-12.82	83.01-14.34	82.09-15.26	80.26-16.17	76.9-16.78	70.19-17.7	61.04-18.62	52.49-19.84	49.44-20.75	52.49-21.97	58.29-22.89	62.26-23.5	60.42-23.8	53.41-24.11	45.17-25.02	40.89-26.25	43.33-27.47	53.1-28.08	67.14-27.77	80.57-28.08	86.67-29.3	83.92-31.43	74.77-33.57	65.31-35.1	58.29-36.93	54.93-38.76	54.32-40.89	55.85-42.11	59.81-41.81	65.92-39.98	71.41-37.84	74.16-36.93	75.38-37.54	77.21-39.06	78.13-40.28	74.46-39.98	64.39-38.15	52.49-36.01	47-34.48	52.8-34.79	65.61-35.71	76.29-36.93	78.13-37.23	72.94-36.93	69.58-36.62	74.16-36.01	83.31-35.1	90.03-33.57	90.03-32.35	85.75-31.74	81.79-30.82	81.79-29.3	84.53-26.86	86.98-24.11	87.89-22.89	88.81-23.5	88.81-25.33	86.67-27.16	80.87-27.77	74.16-27.16	68.97-25.63	69.89-22.89	79.65-18.92	99.18-13.73	125.73-8.24	153.81-4.27	176.09-2.75	187.07-3.05	185.85-3.97	176.39-3.97	166.02-2.44	161.13-0.31	164.792.14	175.485.19	188.69.16	196.8414.04	196.2319.53	188.625.63	177.9231.13	165.7136.62	150.4542.11	130.9246.08	107.7348.22	85.4547.91	68.9745.47	59.241.2	54.3236.62	52.1930.82	54.3224.11	60.1215.56	66.536.1	69.27-3.05	65.61-10.07	54.93-14.34	40.28-15.87	25.94-16.48	13.43-17.09	5.19-18.01	3.97-19.23	10.07-20.14	20.14-21.06	28.08-21.97	29.3-22.89	23.5-24.11	15.26-25.02	9.46-25.63	8.85-26.25	11.6-26.86	13.73-27.77	12.82-28.69	10.07-28.99	8.54-28.69	10.07-28.38	15.26-28.08	19.84-27.77	18.31-27.16	8.85-25.33	-4.58-23.5	-13.73-22.58	-11.6-23.19	1.83-24.41	19.84-25.33	30.21-24.41	24.41-21.36	5.8-17.7	-12.21-14.04	-16.48-10.68	-1.53-7.02	25.94-1.53	51.577.32	64.721.36	66.8340.89	69.2766.83	85.7597.66	124.21132.45	176.7169.37	218.51205.99	217.59239.56	150.45267.64	18.92291.75	-146.18316.16	-297.24345.76	-397.03384.52	-435.49429.38	-429.08473.02	-408.33504.46	-398.25516.05(R)	-407.41504.46	-425.42475.46	-436.71439.45	-433.96406.19	-425.72381.16	-430.6366.21	-462.95359.8	-521.55360.72	-591.74366.52	-656.13372.92	-708.92375.37	-754.39371.7	-798.03365.3	-842.29360.72	-886.84361.94	-926.21367.74	-953.98372.62	-965.88370.48	-956.12356.75	-915.83329.28	-839.54286.56	-726.62229.19	-586.55161.13	-441.8990.33	-318.626.55	-229.19-24.11	-166.93-61.65	-112.3-90.33	-53.1-113.53	7.32-130.92	55.54-141.3	82.4-145.57	92.77-147.4	99.49-149.84	108.64-153.2	114.75-156.25	114.14-158.08	112-159.3	115.97-161.44	131.23-164.49	150.76-167.24	161.13-168.46	157.47-169.07	148.62-170.29	145.26-173.03	152.59-176.7	164.18-180.36	170.9-183.11	168.15-185.24	160.83-187.07	158.08-189.21	162.66-191.96	168.76-195.31	168.76-198.36	162.05-201.11	153.2-204.47	149.54-209.35	154.42-216.67	163.27-225.52	169.98-234.38	172.42-242.31	170.59-248.41	166.93-253.3	163.57-258.18	161.13-263.06	159-269.17	159-275.88	162.66-283.81	168.46-291.44	173.34-297.24	174.56-299.68	173.03-299.07	175.17-296.33	186.77-292.36	202.94-287.78	213.93-281.68	213.01-273.13	202.03-262.15	191.04-249.02	185.85-233.46	185.55-216.67	189.51-198.97	196.53-181.27	205.08-163.27	211.18-144.65	207.52-124.21	190.73-101.62	166.63-79.04	144.65-58.9	131.84-43.03	127.56-30.82	126.95-20.75	125.73-10.99	121.15-1.83	110.786.71	97.0512.82	81.1815.87	64.716.78	50.3516.17	41.515.56	40.5914.95	46.3914.04	54.0211.29	56.467.02	49.442.75	37.840.31	29.30	28.991.53	35.42.75	42.112.75	43.331.53	38.15-0.92	29.91-3.36	21.67-5.19	15.26-6.41	10.68-6.71	7.63-7.02	6.41-7.63	6.71-9.16	6.71-10.68	5.19-11.9	2.44-12.21	-0.31-11.9	-1.22-11.6	0-12.21	0.31-13.43	-1.53-14.65	-5.19-15.87	-8.54-16.48	-10.68-17.4	-10.99-18.62	-11.29-19.84	-12.51-20.75	-13.73-21.36	-14.04-21.67	-12.82-22.28	-10.99-22.89	-9.77-24.11	-9.77-25.63	-10.68-27.16	-10.99-29.3	-10.07-31.43	-8.24-32.96	-6.41-33.87	-5.8-34.18	-6.41-35.1	-7.02-36.32	-6.41-37.54	-4.88-37.84	-2.44