8.85	-99.497.32	-99.495.49	-101.323.05	-103.760.61	-104.37-1.22	-101.93-1.53	-96.130.61	-87.894.58	-79.049.46	-72.0213.73	-68.3616.17	-68.0517.4	-70.1918.92	-72.0221.67	-71.4125.02	-69.5827.47	-69.8928.08	-73.5525.63	-78.7421.67	-80.2618.01	-73.8515.87	-61.9517.09	-51.2722.28	-47.329.6	-47.9137.84	-47.6144.25	-40.5949.44	-24.7255.85	-2.4466.53	22.2882.09	42.72100.4	53.41117.8	49.13131.23	28.69140.08	-1.83144.96	-33.57146.79	-58.59144.35	-74.16136.11	-83.92118.41	-93.3889.72	-107.1251.57	-126.0410.68	-149.23-24.11	-172.42-45.17	-192.57-51.27	-206.3-47	-211.49-39.67	-209.35-35.1	-203.86-34.79	-198.67-36.62	-195.01-37.54	-193.48-36.62	-192.57-35.1	-191.65-33.57	-190.43-32.65	-190.12-31.74	-189.51-30.52	-188.29-28.38	-185.55-26.25	-181.88-24.72	-177.61-25.63	-171.51-30.82	-157.47-41.5	-130.31-53.1	-90.03-53.41	-42.72-25.94	1.5343.95	39.67159.91	80.87312.5	140.38487.37	225.52677.49	326.23882.26	407.711095.89	409.24(R)1282.35	2891372.38	71.411301.27	-156.861057.43	-292.36704.04	-285.34351.56	-186.1693.69	-101.62-42.72	-100.71-92.16	-166.02-106.2	-230.41-114.44	-245.36-122.07	-216.06-123.9	-181.58-119.63	-171.2-115.66	-182.5-115.66	-196.23-117.8	-200.5-119.32	-197.14-119.32	-192.87-119.93	-190.73-121.15	-190.12-122.38	-190.73-122.99	-191.04-123.29	-189.82-123.9	-187.38-124.21	-184.94-125.43	-183.72-127.26	-182.8-129.39	-180.66-130.92	-177.31-131.53	-174.56-132.14	-173.65-132.75	-174.26-133.67	-175.17-134.89	-173.95-135.5	-170.59-135.8	-166.02-136.72	-161.44-137.94	-158.69-139.77	-156.86-142.52	-155.33-145.57	-152.89-148.32	-150.76-151.67	-149.84-155.33	-150.76-159.91	-152.59-165.71	-154.42-172.12	-155.03-178.83	-154.42-185.85	-153.81-193.48	-153.5-202.94	-154.72-214.54	-156.25-227.66	-158.08-242	-159.3-255.74	-159.91-268.55	-160.52-280.46	-161.74-290.53	-162.66-299.07	-162.96-305.18	-161.44-307.62	-157.17-306.7	-150.76-301.82	-143.43-293.88	-135.19-281.98	-127.26-266.11	-119.63-246.28	-112.61-223.69	-106.81-198.97	-102.54-173.34	-99.49-147.4	-97.35-122.38	-95.21-98.88	-93.99-78.43	-93.69-60.73	-94.91-45.47	-96.74-32.35	-98.88-20.75	-100.4-10.68	-101.32-2.44	-102.543.66	-104.687.93	-106.8110.99	-108.3413.73	-109.2516.17	-109.5617.7	-109.5618.31	-110.4718.01	-111.3917.09	-11215.87	-112.314.34	-112.312.51	-112.6111.29	-112.9210.38	-112.619.77	-111.698.85	-111.397.02	-111.693.97	-112.920.31	-114.44-2.14	-114.44-3.05	-112-1.83	-106.510.31	-99.183.05	-92.165.49	-88.27.32	-87.899.46	-90.0312.51	-90.6416.48	-86.3620.14	-78.4321.97	-73.2420.45	-75.9915.87	-85.148.85	-94.62.14	-97.05-2.44	-90.94-3.36	-80.260.61	-71.418.24	-65.3116.78	-59.8123.5	-52.827.47	-43.6431.13	-31.4338.76	-14.3453.71	6.4174.77	25.9496.74	35.4115.05	26.86126.65	0.31132.14	-34.48133.67	-65.61132.45	-85.45126.04	-95.52111.39	-101.9385.14	-110.4748.22	-124.215.8	-144.35-32.96	-168.15-59.81	-191.96-72.02	-210.88-71.41	-219.42-64.39	-218.2-57.68	-211.18-54.93	-204.47-55.24	-202.03-56.15	-202.33-56.15	-202.64-54.32	-201.42-52.49	-198.67-51.27	-195.31-50.66	-192.57-50.05	-189.51-48.52	-186.46-46.69	-182.8-45.17	-179.44-45.17	-175.78-48.83	-167.54-58.59	-148.01-72.33	-114.14-81.79	-67.44-71.11	-15.26-23.5	35.7170.5	86.67207.82	149.23376.89	231.02567.63	325.62778.2	406.81003.72	421.45(R)1217.04	318.61357.73	102.841354.37	-151.371173.4	-332.95852.36	-361.33488.28	-253.3184.63	-113.83-4.27	-50.35-90.94	-88.81-121.15	-172.42-131.84	-226.14-137.33	-220.64-138.24	-181.88-134.58	-152.28-131.23	-150.15-131.84	-164.49-135.19	-175.78-137.63	-177.31-138.24	-172.73-138.55	-168.15-139.47	-166.02-140.69	-166.32-140.99	-167.85-141.3	-168.76-141.6	-168.15-142.52	-166.63-143.43	-165.1-144.65	-164.49-146.18	-163.57-147.4	-161.74-148.32	-159.3-148.32	-157.17-148.32	-155.64-148.32	-154.11-148.62	-152.59-149.54	-150.45-150.45	-148.01-151.37	-145.26-152.59	-142.82-154.11	-140.69-155.94	-138.85-158.69	-137.33-161.74	-135.8-165.41	-133.67-169.37	-131.84-173.95	-130.92-179.14	-130.62-184.63	-130.92-191.04	-130.62-197.75	-129.39-205.69	-127.87-215.45	-126.65-226.75	-126.65-239.87	-127.56-254.21	-129.09-269.78	-130.62-285.03	-131.84-299.38	-132.14-312.19	-131.23-322.27	-129.09-329.59	-126.04-334.17	-122.38-335.69	-118.41-333.86	-113.53-327.15	-107.73-315.55	-101.01-299.07	-93.08-279.24	-85.14-256.35	-78.74-231.93	-74.77-205.99	-73.85-179.44	-75.68-153.2	-79.35-127.87	-83.92-104.68	-88.2-83.92	-91.55-65.31	-94.6-48.83	-96.74-34.18	-98.88-21.97	-101.32-12.82	-104.06-6.1	-106.81-1.83	-109.562.14	-111.695.8	-113.229.16	-114.7510.99	-116.2711.29	-117.810.68	-118.4110.07	-118.110.07	-116.5810.07	-114.759.77	-113.538.54	-113.836.41	-114.753.66	-115.660.92	-115.66-1.22	-115.05-3.05	-114.44-4.88	-114.44-7.63	-115.05-10.07	-114.44-10.99	-110.47-9.46	-102.54-5.49	-92.47-0.31	-83.925.19	-79.659.46	-79.9613.12	-81.1816.78	-79.6520.75	-74.1623.8	-69.5824.41	-71.7221.97	-81.7917.09	-93.9911.9	-100.48.24	-95.837.63	-83.9210.68	-71.7217.09	-63.4825.63	-57.9833.57	-51.5738.76	-42.1141.81	-29.647	-13.4358.59	6.177.82	26.86101.32	42.11122.68	43.03137.02	25.63143.43	-5.49144.65	-38.76143.74	-65.31140.38	-81.48131.53	-91.25112	-99.7980.26	-111.0839.06	-126.95-3.36	-147.09-37.84	-169.07-58.59	-189.51-64.7	-202.64-60.73	-205.99-53.41	-200.5-48.22	-192.26-46.69	-186.16-47.3	-184.02-47.61	-184.02-47	-182.8-45.78	-179.44-44.25	-174.56-43.03	-169.98-41.81	-166.02-39.98	-162.05-38.15	-157.47-36.93	-152.28-36.93	-146.48-39.37	-137.33-47	-120.85-60.42	-92.16-74.46	-50.96-75.38	-1.83-44.86	48.8331.13	97.66154.72	152.28316.47	222.47503.23	309.14709.23	394.59931.7	438.54(R)1156.01	382.391336.06	203.861400.15	-48.221293.03	-270.691019.9	-359.5656.43	-287.17311.58	-131.5367.44	-14.34-60.42	-3.05-109.25	-70.8-124.51	-140.69-131.53	-158.69-134.89	-129.09-133.36	-91.86-129.39	-77.21-127.87	-84.84-129.39	-97.05-131.84	-100.71-132.45	-96.74-131.84	-90.33-132.45	-85.45-133.67	-83.31-135.19	-83.92-136.41	-85.14-137.94	-85.14-139.47	-83.31-140.69	-80.87-141.6	-79.35-141.91	-78.13-141.91	-76.29-141.91	-73.55-142.21	-70.5-142.82	-68.05-143.74	-66.22-144.65	-64.7-145.57	-62.87-146.48	-60.73-147.09	-57.98-148.01	-55.54-149.54	-53.41-151.67	-52.19-154.11	-51.57-156.56	-50.96-158.39	-50.05-159.91	-49.13-161.74	-48.22-165.1	-48.52-170.29	-50.05-177.31	-53.1-185.55	-57.37-194.09	-61.65-203.55	-65.31-213.62	-67.75-224.91	-68.97-237.43	-70.19-250.85	-71.41-264.59	-72.63-278.02	-74.16-290.83	-75.07-302.12	-75.38-310.97	-74.46-316.47	-72.63-317.99	-69.27-315.86	-64.7-309.75	-58.9-300.29	-51.88-287.17	-44.25-269.78	-37.23-248.41	-30.82-223.08	-26.25-195.92	-23.19-168.46	-22.58-142.21	-24.72-118.1	-29.3-95.83	-35.71-75.38	-41.5-57.07	-46.08-41.2	-48.22-27.47	-49.44-15.87	-50.96-6.1	-54.321.83	-58.97.93	-63.7811.9	-67.1414.95	-68.3617.09	-68.0518.92	-67.1420.45	-67.4421.97	-68.6622.58	-70.822.28	-72.6321.06	-73.5519.23	-73.2417.7	-72.9416.17	-72.9414.65	-74.1613.12	-75.9910.38	-77.827.02	-79.353.66	-80.260.31	-80.57-2.14	-80.57-3.66	-78.43-4.27	-73.24-3.66	-65-1.53	-54.632.14	-45.476.41	-39.6710.38	-38.1514.04	-38.4517.4	-37.5420.75	-33.5723.19	-29.9123.5	-32.6520.14	-42.7214.65	-55.248.24	-61.952.75	-57.370.31	-44.561.83	-31.437.32	-23.816.17	-20.4525.33	-17.431.74	-10.9935.4	0.6139.67	17.449.74	39.3767.75	62.2690.33	79.35112	80.87128.17	63.17137.02	30.82140.08	-4.88140.08	-33.57137.33	-51.57129.09	-62.26111.39	-71.4181.79	-82.442.11	-97.660	-116.27-35.4	-137.33-57.07	-157.47-63.48	-172.12-59.81	-176.39-52.8	-171.81-48.22	-164.49-47.3	-160.52-48.22	-162.35-48.83	-166.63-48.22	-169.07-47	-167.24-46.39	-162.96-46.08	-159.91-45.17	-159.3-43.64	-160.52-41.81	-160.52-40.28	-157.17-39.06	-149.54-39.98	-137.94-44.86	-119.32-55.54	-90.64-68.05	-51.88-69.89	-6.71-42.72	37.8429.91	79.96152.89	128.48315.86	194.7502.93	281.37704.65	372.01918.27	427.25(R)1133.73	388.491311.04	226.751382.75	-15.561289.67	-239.561028.14	-342.1667.72	-289.31318.6	-151.9868.97	-47.61-59.2	-42.72-103.45	-112-113.83	-180.36-119.63	-196.84-126.04	-168.15-128.78	-134.58-127.26	-124.82-124.82	-135.5-124.21	-147.71-124.51	-149.54-124.51	-143.74-124.82	-137.63-126.04	-134.89-127.26	-135.8-128.17	-138.24-129.09	-139.16-130.31	-136.72-131.84	-132.14-132.45	-129.09-132.45	-130.31-132.14	-133.97-132.45	-137.33-133.67	-137.94-134.58	-136.11-135.19	-133.36-135.19	-130.62-135.5	-127.87-137.02	-124.21-139.16	-119.63-141.91	-114.44-143.43	-109.25-144.04	-105.29-143.43	-102.84-143.74	-101.62-145.26	-101.62-148.93	-101.32-153.2	-99.79-157.17	-97.05-160.52	-94.3-164.18	-93.08-169.07	-93.99-176.39	-95.21-185.85	-95.21-196.53	-92.16-207.21	-87.28-218.2	-82.09-229.49	-77.82-242.61	-75.99-257.57	-76.6-273.44	-79.04-288.09	-82.09-299.38	-83.92-306.7	-82.7-310.67	-78.43-311.28	-72.94-309.14	-67.14-303.96	-60.73-294.8	-53.1-281.68	-44.25-264.89	-35.4-245.36	-28.69-224	-25.33-201.11	-24.11-177	-23.8-152.59	-23.5-128.78	-22.58-106.2	-22.28-84.84	-22.58-65	-23.5-46.69	-26.25-31.43	-30.21-19.23	-34.48-10.68	-38.15-4.58	-40.890.31	-42.424.88	-43.039.16	-43.6412.82	-44.2515.56	-44.8617.4	-45.4718.01	-46.0818.01	-46.0817.7	-46.3917.09	-47.9116.48	-51.5714.65	-56.1512.21	-58.99.77	-58.598.24	-55.547.63	-52.196.71	-50.665.19	-50.962.14	-51.57-1.83	-51.88-5.8	-52.8-8.85	-54.63-9.77	-57.37-9.16	-58.29-6.71	-55.24-3.66	-47.91-0.92	-40.280.61	-36.012.44	-36.934.58	-40.598.85	-42.4214.65	-39.6720.45	-33.5723.8	-29.623.8	-30.8219.84	-36.0114.34	-39.679.46	-37.237.32	-28.389.46	-18.3116.17	-10.6825.63	-5.1935.1	0.3142.11	8.8547.3	22.5853.41	42.1163.78	65.9279.65	88.598.88	101.32118.1	94.91133.97	68.05144.35	28.99149.23	-8.54149.23	-33.57143.74	-44.25131.23	-47109.25	-50.6676.6	-59.5136.32	-75.07-3.66	-94.6-34.48	-115.97-50.35	-136.41-52.8	-150.76-47.3	-155.33-41.2	-149.84-37.84	-138.85-37.23	-128.48-37.84	-121.77-38.45	-119.32-38.76	-118.71-39.06	-116.88-39.06	-113.22-38.45	-107.42-37.23	-101.32-36.01	-97.35-34.79	-96.13-33.26	-96.13-32.65	-93.38-33.87	-82.7-40.89	-59.81-53.71	-23.8-66.53	21.06-63.48	68.36-25.63	113.2259.81	158.08192.57	213.01358.28	287.48541.99	379.94737	473.33944.82	525.51(R)1152.95	481.261314.7	321.351356.51	94.911225.59	-102.23934.75	-181.27568.54	-128.48239.87	-23.824.11	31.74-75.68	0.31-105.29	-72.94-112.3	-120.24-118.1	-112.3-122.68	-73.24-122.07	-45.47-118.71	-46.69-117.19	-63.78-118.71	-75.38-120.24	-74.16-119.93	-67.44-119.02	-62.56-119.32	-61.04-120.85	-62.26-122.68	-65-124.51	-67.44-126.34	-68.97-127.87	-69.58-128.48	-69.27-128.78	-68.66-129.7	-67.14-131.53	-65.61-133.06	-64.7-134.28	-64.7-134.58	-64.7-134.58	-63.78-134.28	-61.34-134.58	-58.29-135.19	-55.85-136.72	-54.32-138.24	-54.02-140.38	-53.71-142.52	-53.41-144.96	-51.88-147.4	-49.74-150.45	-47.3-153.81	-44.56-157.78	-42.72-162.35	-41.5-168.15	-41.2-174.26	-41.81-181.27	-42.42-188.9	-43.33-197.75	-43.95-207.82	-44.25-219.73	-43.95-233.15	-43.64-246.89	-43.64-260.62	-44.56-273.44	-45.78-284.73	-46.69-293.88	-45.78-300.9	-42.72-305.48	-37.84-307.01	-32.65-305.18	-28.38-299.99	-25.02-290.53	-20.75-276.79	-14.34-258.79	-5.8-237.73	2.44-214.84	7.93-190.43	9.16-165.41	6.41-140.38	1.22-115.97	-3.97-93.08	-7.93-73.24	-10.99-56.15	-13.12-41.81	-14.95-29.91	-16.78-19.53	-18.92-11.29	-21.36-4.58	-24.410.61	-28.385.19	-32.358.85	-35.112.21	-36.0114.65	-35.116.17	-32.9616.48	-31.4316.17	-31.1316.17	-32.6515.87	-35.415.56	-38.1514.34	-39.6712.21	-40.599.46	-41.26.1	-42.112.75	-43.640	-44.56-2.14	-45.17-3.97	-45.17-6.1	-45.17-7.93	-44.86-9.46	-43.95-10.38	-41.2-10.07	-35.4-8.54	-28.08-6.41	-21.06-3.66	-16.78-0.31	-16.483.36	-17.77.02	-17.0910.99	-12.5114.34	-6.115.56	-3.9714.34	-8.8510.38	-18.315.19	-25.940.61	-25.63-2.14	-16.78-0.92	-5.194.27	3.9712.82	10.3821.67	15.8727.77	22.5831.43	32.3535.71	4745.78	67.1463.17	90.0385.45	108.64107.42	113.53124.21	99.18133.67	68.97137.33	34.18137.33	4.27134.28	-14.95125.73	-26.86108.03	-36.0178.43	-4738.76	-62.26-3.66	-81.18-38.76	-102.84-60.73	-123.6-67.75	-139.16-65	-145.57-59.2	-143.43-55.54	-137.33-55.54	-132.45-57.37	-131.53-58.29	-133.06-57.37	-133.67-55.24	-132.14-52.8	-128.78-50.96	-125.73-49.74	-122.99-48.52	-121.15-47.91	-119.32-47	-117.19-46.69	-114.44-47.91	-109.25-53.41	-96.13-64.7	-70.19-78.43	-30.82-82.7	18.01-58.9	69.278.24	118.41122.99	170.59276.79	235.29456.24	316.16654.91	401873.11	458.07(R)1101.68	432.131300.66	288.71398.93	57.371332.4	-171.511090.39	-292.36737	-256.35379.33	-119.93108.95	-0.61-43.95	19.84-108.34	-48.52-129.7	-131.23-137.63	-164.79-140.38	-143.13-138.24	-103.45-134.28	-83.62-132.14	-89.11-133.97	-103.15-136.11	-109.86-136.72	-106.81-135.8	-100.1-134.89	-94.3-135.5	-91.55-137.02	-92.16-139.16	-94.91-142.52	-97.66-145.87	-98.57-147.71	-97.05-147.4	-94.6-145.57	-91.86-144.35	-89.42-144.04	-86.98-145.26	-84.84-146.79	-82.7-148.62	-80.26-149.84	-77.82-150.76	-75.99-151.67	-74.46-152.89	-72.63-154.72	-70.5-156.56	-67.75-158.08	-64.39-159.61	-61.04-161.74	-58.9-165.41	-57.37-169.98	-56.76-174.56	-56.46-179.14	-55.85-183.41	-55.24-188.29	-54.32-194.4	-53.41-202.33	-52.19-212.1	-51.27-223.69	-50.96-236.82	-51.88-250.85	-53.41-265.2	-54.32-279.54	-54.93-293.27	-54.32-305.79	-53.41-316.77	-52.19-325.93	-50.96-332.95	-49.44-337.22	-47-337.52	-43.03-333.25	-37.23-323.79	-29.6-309.75	-21.06-291.75	-12.51-270.69	-5.19-246.89	-0.31-220.95	2.44-194.09	2.75-166.93	0.92-140.99	-2.75-116.27	-7.32-93.69	-11.9-73.24	-16.17-55.24	-19.23-39.98	-22.28-27.77	-25.63-18.31	-29.3-10.68	-32.65-3.97	-34.792.44	-36.018.24	-36.6212.82	-37.5415.26	-39.6715.87	-42.4215.87	-44.5615.56	-45.1715.87	-44.2515.56	-43.0314.95	-41.513.73	-41.211.9	-41.59.46	-42.116.71	-43.033.66	-44.250.31	-45.78-3.05	-47-5.49	-47.61-7.63	-47.91-9.46	-48.22-11.9	-48.83-15.26	-50.05-18.62	-50.35-20.14	-48.22-18.62	-42.11-14.34	-33.57-8.85	-25.33-3.66	-20.450.92	-19.844.88	-20.459.46	-18.6214.34	-12.5118.01	-6.119.23	-5.817.09	-13.7313.12	-25.339.16	-32.656.71	-31.137.02	-21.3610.99	-9.4618.01	026.86	7.9335.4	16.1741.2	26.5545.17	39.6750.66	56.4661.65	76.679.96	97.66102.84	113.53124.51	114.75140.08	97.66148.01	66.22150.45	31.43149.84	2.75146.18	-15.87137.02	-26.86118.1	-35.7186.36	-46.3944.56	-62.260.61	-83.01-35.71	-106.2-57.98	-127.56-64.7	-141.6-60.73	-144.65-53.71	-138.85-48.83	-130.31-47.61	-125.73-48.22	-126.04-48.83	-129.39-48.52	-131.23-47.3	-130-45.78	-126.04-44.56	-122.68-43.03	-120.24-41.5	-118.71-39.98	-116.27-38.76	-112.92-38.45	-108.03-40.59	-100.1-48.22	-84.53-61.65	-57.07-75.38	-17.09-75.68	30.52-43.95	78.7433.87	125.12159.91	176.7324.4	243.84513	325.62719.6	405.58942.38	442.81(R)1167.3	381.161348.57	200.811413.88	-471306.15	-258.791030.27	-333.86662.84	-249.94314.33	-90.6466.53	20.75-64.09	20.45-115.05	-58.59-131.53	-134.58-138.24	-152.89-140.38	-120.85-137.94	-82.09-134.58	-68.97-133.97	-79.96-136.11	-95.52-137.63	-101.32-136.72	-98.57-135.19	-93.38-135.19	-90.03-136.41	-89.72-137.33	-91.55-138.24	-93.99-139.16	-93.99-140.08	-91.55-140.38	-87.89-140.38	-84.84-140.08	-83.01-139.77	-81.48-140.08	-79.65-140.08	-77.51-140.38	-75.38-140.69	-73.55-141.6	-71.41-142.82	-69.27-144.35	-66.83-146.18	-63.48-148.32	-59.81-150.45	-55.54-151.98	-51.27-153.2	-48.83-154.72	-48.52-156.86	-49.74-159.91	-50.96-164.18	-50.35-169.07	-47.91-174.56	-44.56-180.36	-41.2-186.16	-39.06-192.57	-37.84-201.11	-38.15-212.1	-39.37-224.91	-41.81-239.26	-44.25-253.6	-45.47-266.72	-45.17-279.24	-43.64-290.83	-42.11-301.51	-41.2-310.06	-39.98-315.25	-36.93-315.86	-31.13-311.58	-22.28-303.34	-12.21-292.05	-3.05-278.63	3.66-262.45	8.24-243.23	11.29-220.64	14.34-194.7	17.09-167.54	18.62-140.69	18.31-115.36	14.95-91.86	9.77-70.5	3.97-51.88	-0.61-36.01	-3.66-22.89	-6.1-12.21	-7.93-3.05	-10.685.19	-13.1212.51	-14.3418.92	-14.3424.11	-14.3427.47	-15.5628.99	-19.2328.69	-24.4127.77	-29.326.55	-32.6525.94	-34.1825.02	-34.4824.72	-33.5724.11	-30.8223.19	-26.2521.97	-21.9718.92	-19.5314.34	-19.539.77	-20.456.1	-21.063.97	-21.062.14	-21.97-0.31	-25.33-4.27	-29.91-7.93	-33.57-10.38	-33.87-10.07	-29.6-7.32	-21.97-4.27	-13.73-1.53	-8.240	-7.021.83	-7.325.49	-5.1911.6	2.4418.92	14.0424.11	21.9725.02	20.1421.06	8.5414.34	-5.198.24	-12.214.88	-7.935.49	3.3610.38	14.9519.23	23.1929.3	30.5238.15	39.9843.64	52.4946.69	67.1451.88	84.8464.09	104.9884.23	125.73108.64	140.08130	138.85144.04	118.41150.45	84.23151.67	47.91151.37	19.23148.93	1.22139.77	-9.46119.32	-18.3185.45	-28.3842.11	-42.11-0.61	-59.2-32.35	-79.35-47.91	-99.79-48.83	-115.05-41.81	-120.54-35.1	-116.88-32.65	-108.34-33.57	-100.4-34.48	-95.52-33.57	-93.69-31.43	-93.69-29.91	-94.3-30.21	-95.83-31.74	-97.35-32.96	-98.27-33.26	-97.05-32.65	-93.38-31.13	-87.89-29.3	-81.48-29.3	-71.72-34.79	-54.32-46.08	-24.11-57.07	18.01-51.57	65.92-10.99	112.9277.21	158.39212.4	212.1381.77	283.51569.76	371.09769.65	457.76980.22	500.79(R)1188.05	444.951346.44	273.441384.58	38.451250.61	-159955.81	-228.27583.8	-156.56247.8	-30.8225.63	39.37-76.9	11.6-104.98	-67.44-107.12	-122.99-108.95	-120.24-112.92	-81.79-115.05	-51.88-115.66	-51.57-117.49	-69.27-119.93	-81.79-120.24	-80.57-118.1	-71.11-115.66	-62.56-115.66	-59.81-117.8	-63.48-120.85	-70.8-123.6	-76.29-125.43	-75.38-125.43	-68.05-123.6	-59.51-121.77	-55.24-121.15	-55.54-122.07	-57.98-124.21	-58.29-125.73	-55.24-126.34	-49.44-126.34	-44.86-126.65	-43.03-127.56	-43.64-129.7	-44.25-131.53	-42.42-132.75	-37.84-133.67	-33.26-135.19	-30.52-138.24	-29.6-142.52	-28.69-146.79	-26.25-150.45	-22.58-153.5	-20.14-157.17	-20.45-162.66	-22.89-169.68	-24.41-177	-22.28-184.33	-17.4-191.65	-12.82-199.89	-11.6-210.57	-13.73-223.08	-17.4-237.43	-19.84-251.77	-19.84-265.5	-18.01-277.71	-15.87-288.39	-14.04-296.33	-12.82-301.51	-10.99-303.04	-7.32-300.29	-1.22-293.58	6.1-283.2	13.12-269.78	18.62-253.3	23.5-234.07	28.08-212.1	32.04-187.68	34.18-162.35	32.35-137.02	26.55-112.92	18.01-91.25	10.07-71.72	4.88-54.93	3.66-39.98	4.27-26.86	4.88-15.56	3.36-6.1	0.311.53	-3.057.63	-5.1912.51	-5.816.48	-5.819.53	-6.7121.97	-7.9323.8	-9.1625.02	-9.7725.33	-9.7724.72	-10.0723.8	-10.9922.89	-12.5122.28	-13.4321.36	-13.7319.53	-13.1216.78	-11.613.73	-10.3811.29	-10.079.46	-10.387.63	-11.64.88	-14.040.92	-17.09-3.05	-20.45-5.8	-22.89-6.41	-22.89-5.8	-18.62-3.36	-10.38-0.31	-0.613.05	6.416.1	7.638.85	2.7510.99	-3.6613.73	-5.4917.4	-0.3121.67	7.6324.41	12.2124.41	10.6821.67	6.7116.78	6.4112.21	13.4310.07	25.0212.51	35.420.75	41.531.74	46.6942.42	53.7149.74	65.6154.63	82.761.34	104.3774.16	126.9593.99	145.87116.58	152.89136.41	142.52149.23	115.66154.42	80.87154.11	48.52151.06	26.25144.96	12.82132.45	3.97108.64	-5.872.63	-19.8428.99	-39.06-11.9	-61.04-39.98	-83.01-50.96	-100.4-48.83	-108.64-41.2	-107.42-35.1	-100.1-33.57	-92.77-35.1	-89.11-36.93	-89.11-36.62	-90.33-34.18	-90.33-31.43	-88.81-29.6	-86.67-29.3	-84.84-29.3	-82.4-28.69	-79.04-27.16	-74.77-25.94	-70.19-26.55	-65.61-32.04	-56.76-43.33	-37.23-57.68	-3.05-65.92	43.33-51.88	94.30.61	142.52244.45	246.89419.01	322.88612.79	411.07821.84	486.761041.26	498.35(R)1245.42	397.951375.12	194.41359.86	-37.841168.21	-193.18839.84	-201.72473.94	-90.33174.56	32.35-7.32	68.97-87.59	8.85-114.44	-81.79-124.21	-130.92-130	-117.8-131.53	-76.6-129.09	-50.96-126.34	-54.93-126.34	-71.72-128.48	-82.4-129.39	-81.48-129.09	-75.07-129.09	-69.27-130.31	-66.83-131.53	-67.75-132.45	-69.89-133.36	-71.41-134.89	-70.5-136.11	-68.05-136.41	-66.22-136.72	-65.92-137.33	-66.83-138.24	-66.83-139.16	-65.31-139.77	-61.95-140.38	-57.98-141.3	-54.93-142.21	-53.1-143.13	-52.49-144.65	-52.19-146.18	-50.35-147.71	-47.61-148.93	-43.95-150.45	-40.59-152.28	-38.15-154.72	-36.93-158.39	-36.62-162.66	-36.32-167.24	-35.4-172.12	-33.87-177.61	-32.65-183.41	-32.04-190.43	-31.43-198.06	-31.43-207.21	-31.13-218.2	-31.43-230.41	-32.35-243.53	-33.87-256.96	-35.1-269.78	-36.01-281.98	-35.71-293.27	-34.48-302.12	-31.43-307.92	-27.77-310.67	-23.19-310.06	-18.62-306.7	-13.73-299.99	-8.54-289	-2.14-273.44	5.19-253.6	12.51-231.02	18.31-206.6	21.36-181.58	21.67-156.25	20.14-131.23	17.4-107.12	13.73-84.53	10.07-64.7	5.8-47.91	1.83-33.57	-1.53-21.67	-4.58-11.29	-7.32-2.14	-10.385.19	-13.4310.68	-16.4814.65	-19.2317.7	-21.0619.53	-21.9720.75	-22.2821.36	-22.5821.36	-22.8920.45	-24.4118.92	-25.9417.09	-27.1615.26	-27.4714.34	-27.1613.73	-26.2512.82	-25.9410.99	-26.558.54	-27.775.8	-28.993.05	-30.210.61	-31.13-2.14	-32.35-4.88	-33.87-8.24	-36.01-11.6	-37.54-13.73	-37.54-14.34	-33.87-12.21	-27.16-8.24	-18.62-3.36	-11.60.92	-7.934.88	-7.638.85	-7.9313.12	-5.1917.7	0.6121.36	5.1921.97	3.0519.53	-5.814.95	-15.8710.07	-20.456.41	-15.265.8	-4.279.46	6.4116.78	14.0426.55	21.0635.4	29.641.5	40.8945.78	55.8553.1	74.7768.05	96.7490.33	117.19115.05	127.87135.19	120.85147.4	94.91151.98	59.2152.59	25.63151.37	1.53146.79	-12.21133.97	-21.36108.34	-31.1369.58	-45.1723.5	-64.7-19.23	-87.59-49.44	-110.47-62.87	-128.78-62.26	-137.63-54.02	-136.11-46.39	-129.09-43.03	-122.68-43.64	-120.24-45.47	-121.77-45.47	-124.21-43.95	-124.21-41.81	-121.46-40.59	-118.1-40.28	-114.75-40.28	-112.3-39.06	-110.17-36.62	-107.42-34.48	-104.06-33.87	-99.49-38.45	-90.33-49.74	-71.11-65	-37.84-74.77	7.32-62.56	57.98-10.68	106.5190.64	154.72237.43	212.1416.87	285.95616.15	369.57830.99	436.71(R)1057.13	434.881268.92	317.381407.17	95.521400.45	-150.451213.68	-307.62884.09	-303.34509.95	-166.63197.75	-14.652.44	44.25-87.28	-8.24-118.1	-104.37-128.17	-162.96-132.45	-154.72-132.75	-111.08-129.39	-78.43-127.26	-77.21-128.78	-93.99-132.14	-107.73-133.06	-109.86-130.92	-104.06-128.78	-97.35-128.48	-93.08-129.7	-92.77-131.23	-94.91-132.45	-96.74-133.36	-96.13-133.97	-93.99-134.89	-91.86-136.72	-90.94-138.85	-90.03-140.69	-88.2-141.6	-85.45-141.3	-81.48-140.99	-78.13-141.3	-75.38-141.91	-73.24-142.52	-70.5-143.43	-67.14-144.04	-63.78-144.96	-61.04-146.79	-58.9-148.93	-57.07-151.06	-54.93-152.89	-51.88-155.33	-49.13-158.69	-47.61-163.27	-47-169.68	-46.69-176.39	-46.08-183.41	-44.56-190.73	-42.42-198.06	-39.98-207.21	-38.76-218.2	-38.45-231.02	-39.06-244.45	-39.37-257.87	-38.76-270.39	-36.93-281.98	-34.18-292.36	-30.82-301.51	-27.47-308.53	-24.41-312.81	-20.75-313.42	-16.78-309.45	-11.6-301.21	-5.19-288.7	2.44-272.52	10.38-253.6	17.7-231.63	23.5-206.91	26.86-180.05	27.47-152.89	25.02-126.65	20.75-102.23	15.26-80.26	9.16-60.42	2.44-43.33	-4.88-28.38	-11.29-15.56	-16.17-3.66	-18.017.63	-17.417.4	-16.4824.72	-17.0929.3	-21.0631.13	-27.1631.13	-33.2631.13	-37.8431.13	-40.2832.04	-41.532.65	-42.1132.65	-42.1131.43	-41.8129.3	-41.226.55	-40.8923.5	-40.8921.06	-40.5919.23	-39.6717.7	-38.7615.87	-38.7613.73	-40.5911.29	-44.258.24	-48.525.49	-51.272.75	-51.880.31	-50.35-1.53	-47.91-2.44	-43.64-1.53	-37.841.53	-31.136.1	-25.0210.99	-21.9715.87	-21.6721.06	-21.6726.55	-18.6232.96	-11.937.54	-6.138.76	-7.0236.01	-15.5630.52	-27.4724.72	-34.4821.36	-32.3521.36	-21.6725.63	-8.5434.18	2.7544.86	12.2155.54	21.6762.87	31.7467.14	43.9572.02	59.5182.4	78.74100.1	99.18122.68	113.53144.35	112.61160.22	92.77-255.74	331.12-269.78	335.08-282.29	339.36-292.36	343.32-299.07	347.29-301.82	351.56-301.21	356.14-297.55	360.41-291.44	363.16-282.59	364.99-270.39	367.74-253.6	373.54-232.24	383-207.52	393.07-181.58	400.7-155.94	402.53-132.14	397.64-110.17	388.49-90.33	378.42-72.94	370.79-57.68	366.82-43.64	364.99-30.21	364.07-17.7	362.55-6.1	359.52.75	355.538.85	350.9511.9	347.2912.82	344.2412.82	342.112.82	340.5813.73	339.3615.87	338.7518.62	338.4420.45	339.0519.53	339.3616.48	338.7511.9	336.618.24	335.396.71	3366.41	338.135.49	340.583.36	340.88-0.31	339.97-4.58	338.44-8.24	337.52-11.29	337.52-12.51	338.75-11.9	342.41-9.16	350.95-5.49	362.24-2.14	372.01-1.22	375.37-2.14	370.18-3.36	361.02-2.44	355.221.53	357.977.63	366.5212.51	373.2314.04	372.3111.29	365.66.71	360.722.44	364.380.92	376.893.05	391.549.16	402.5317.4	408.9425.63	413.2132.04	419.3136.93	430.643.64	448.6155.54	470.8973.24	492.2594.6	504.15114.75	500.18130	480.04138.85	451.36143.13	422.67143.13	399.17139.16	380.86128.17	364.99106.51	350.9572.94	338.1330.52	325.32-10.99	310.06-42.42	291.44-57.98	271.3-58.29	255.74-51.27	249.02-44.56	250.55-42.42	256.04-44.25	260.62-46.08	262.15-45.78	261.84-44.25	260.93-43.03	260.62-43.33	260.31-45.17	260.62-45.47	262.45-43.03	265.81-38.45	269.78-33.87	274.35-31.13	278.93-32.04	285.03-38.45	297.55-50.35	320.43-63.48	355.83-67.14	398.86-44.56	442.221.06	480.35136.41	517.58294.49	567.02480.35	636.29682.07	721.44896.61	797.731120.61	810.24(R)1327.82	709.841455.99	506.591431.58	278.021223.45	132.75875.55	139.16493.47	260.62186.16	382.082.75	408.63-77.51	339.36-106.51	248.41-121.15	208.13-130.92	230.71-132.45	276.18-126.95	300.29-121.15	292.97-121.46	273.74-125.73	262.76-129.09	263.06-130	267.33-130	269.78-130.62	270.08-130.62	269.78-129.7	269.17-128.78	268.86-129.09	267.64-130.92	265.81-133.97	264.89-136.11	266.72-137.02	271-136.11	275.27-133.97	276.18-132.45	274.05-132.14	271.3-133.06	271.3-134.89	274.05-136.41	278.93-137.02	283.81-136.72	287.17-137.02	289-138.85	289-142.21	287.78-145.57	285.95-148.62	285.64-151.06	287.78-153.2	292.36-155.64	298.16-158.69	303.34-162.35	306.09-167.24	306.09-173.95	303.65-182.8	299.68-193.48	294.8-205.08	289.92-216.67	286.25-227.36	285.03-237.43	287.17-248.41	291.75-260.01	296.33-271.91	299.38-281.98	300.29-288.09	300.6-289.31	302.73-285.64	307.01-279.54	313.11-270.69	318.91-259.4	324.1-244.14	328.98-225.52	333.86-204.47	338.44-182.8	340.58-161.13	338.44-138.85	333.25-115.97	327.45-92.47	323.49-70.8	321.66-52.19	320.13-37.84	317.99-26.55	313.72-16.78	307.92-7.93	302.430	297.855.8	294.810.07	293.2713.43	292.6615.87	292.0517.7	290.2218.31	288.0918.01	285.6418.01	284.1218.62	282.919.53	281.0719.53	278.6318.62	276.7917.4	276.4916.48	277.7115.56	279.5413.73	280.1510.68	279.547.32	278.324.27	278.022.14	278.63-0.31	279.54-3.36	281.37-5.8	284.42-7.02	289.31-6.1	294.8-3.36	299.38-0.31	301.512.44	300.95.49	300.99.46	303.0413.73	308.2317.7	312.1919.23	310.0617.7	302.1214.04	292.669.16	288.73.97	294.190.92	306.090.92	318.35.49	326.2314.04	330.8123.19	334.1730.21	340.2734.18	351.5639.37	368.9650.66	390.9369.58	411.9993.38	423.28114.75	416.56128.78	390.63134.28	354.31134.58	318.6133.97	292.36131.84	276.79124.51	267.64106.51	259.475.07	249.0233.57	234.07-8.85	214.23-42.11	191.04-60.12	168.46-63.17	152.89-57.07	148.01-49.13	151.67-44.86	158.08-44.86	161.74-47.3	160.83-49.44	157.47-49.44	155.33-47.61	155.94-44.86	158.08-42.11	160.52-40.59	162.05-39.37	163.57-38.45	164.79-36.93	166.32-35.1	169.07-35.1	174.56-39.67	187.38-50.66	213.01-63.78	252.08-67.14	299.68-42.42	347.627.16	390.93148.01	435.49312.5	492.86505.37	567.32715.64	648.8941.77	705.57(R)1177.06	680.541386.72	535.281502.08	298.461452.64	62.561218.57	-58.9856.63	-10.99476.07	148.62177.31	289.92-0.92	317.69-82.7	238.95-115.36	136.11-130.62	86.67-137.94	104.37-137.02	148.32-131.84	173.34-128.17	168.46-128.78	150.76-131.53	139.16-133.06	138.55-133.06	144.04-133.06	149.84-133.36	152.89-133.06	152.28-133.06	149.84-133.67	148.32-135.19	148.62-136.72	150.76-137.02	152.28-136.72	152.89-136.11	153.2-136.11	154.11-136.41	155.33-136.72	156.25-136.72	157.17-136.72	158.69-137.33	161.13-139.16	164.79-141.6	168.46-144.35	171.2-146.18	172.12-147.09	171.81-147.4	172.12-148.32	173.65-150.15	176.7-152.89	179.44-156.56	180.97-161.13	181.27-166.32	180.97-171.81	181.27-178.22	182.5-185.55	183.72-194.09	183.41-204.47	181.88-216.06	179.44-228.88	177.31-241.7	175.78-254.52	175.48-266.72	176.7-278.02	179.44-287.78	182.5-295.72	185.55-301.21	187.99-303.65	190.43-302.43	194.7-296.94	201.11-287.78	208.74-274.96	216.06-258.79	222.17-238.95	226.44-215.76	229.49-190.12	231.32-163.88	230.71-138.55	228.27-115.05	223.69-93.69	218.2-74.46	212.71-57.37	207.82-42.11	203.86-28.69	201.11-16.48	198.36-6.41	194.090.92	188.296.1	181.8810.07	177.3114.95	175.7820.75	176.0925.94	176.726.86	175.4823.19	172.4217.7	169.0713.73	167.5413.73	167.8516.48	168.7618.31	168.4617.4	166.9314.34	164.7910.68	163.578.54	164.187.32	166.026.1	167.853.97	168.760.31	168.46-4.58	166.93-8.54	166.63-9.77	169.98-7.02	178.22-1.83	189.513.66	199.587.02	204.478.54	203.559.46	200.8112.51	200.8117.4	204.7721.67	209.3522.58	207.8218.92	198.9713.12	187.688.24	182.195.8	186.466.71	197.4510.07	208.7415.87	216.0623.5	221.5632.04	227.6639.37	236.5144.56	248.4151.27	264.2863.78	284.4283.62	306.7108.03	323.18130.62	324.1145.87	305.18152.28	271.91152.59	235.9151.37	207.52148.62	189.82141.91	178.83125.12	169.6895.52	158.3954.32	143.139.77	123.29-28.38	100.1-51.88	76.6-59.2	59.51-54.32	53.71-45.78	58.59-39.98	67.44-39.37	72.63-42.42	71.72-45.17	66.83-45.47	63.17-43.03	63.48-39.37	67.14-36.62	71.11-34.79	73.24-33.57	74.16-32.35	74.77-31.43	75.68-31.43	77.82-33.57	81.79-39.67	92.47-50.66	115.66-63.17	153.2-67.44	201.42-47.61	250.8513.73	293.88124.82	333.56281.07	381.77469.06	445.25678.41	517.58905.15	571.29(R)1144.41	552.981368.1	418.091511.54	184.021499.02	-63.171297.3	-206.6947.88	-176.09555.73	-11.29229.8	160.8324.72	227.36-74.46	174.56-115.05	75.38-133.36	14.95-141.91	22.28-140.69	65.31-133.67	96.44-127.87	96.74-127.87	80.57-131.23	67.75-133.67	66.22-133.67	71.11-133.67	76.29-134.58	78.13-134.89	77.51-134.28	76.29-133.36	76.6-133.67	78.43-134.89	79.96-136.41	80.26-137.33	79.65-137.33	80.26-136.41	82.4-134.89	85.75-133.36	88.81-133.06	90.94-134.58	92.47-137.63	93.99-140.99	95.52-143.43	97.35-144.04	99.18-143.74	101.32-143.74	104.06-144.96	107.12-147.09	109.86-150.15	111.69-153.81	112-158.08	111.39-163.27	111.39-168.15	112.92-172.42	115.05-177.31	116.27-183.72	116.27-192.26	115.05-203.25	113.53-215.15	112.92-227.66	113.53-239.87	114.44-252.38	115.66-264.28	116.88-275.57	118.1-286.25	119.93-295.72	121.46-303.34	123.29-307.31	126.04-306.4	130.31-299.99	135.8-289	142.52-274.96	149.23-259.09	155.64-241.09	161.44-220.64	166.63-196.23	170.29-169.07	172.12-140.69	172.12-114.14	169.98-90.94	165.71-71.72	160.83-54.93	156.56-39.37	153.2-24.72	151.06-11.9	148.93-2.14	145.573.97	140.997.93	134.8911.29	129.0915.56	123.2919.84	118.4122.89	114.1424.41	111.3924.72	110.1725.02	110.4725.63	111.0825.63	111.0825.02	109.8623.5	108.3421.67	107.1220.45	106.8119.23	107.1217.09	107.1213.43	107.129.16	107.425.19	108.643.05	110.783.05	113.533.66	116.884.27	121.154.88	127.266.1	135.198.54	143.4311.9	149.5415.26	152.5918.31	153.8121.06	155.6423.5	158.0825.02	157.7824.11	151.0620.14	139.1614.04	128.487.63	125.433.05	131.532.14	142.215.49	151.9812.82	160.2222.28	169.3730.52	180.9736.01	193.1839.98	205.3847.3	219.1261.95	235.984.53	253.91109.86	264.89131.53	260.31144.04	238.34147.71	205.69146.18	172.73144.04	146.79140.69	128.48130.92	114.14109.56	101.3274.46	89.1130.52	76.29-11.9	61.65-43.64	43.64-60.12	23.8-62.87	7.63-57.98	-0.61-51.57	-1.22-47.61	2.14-46.39	5.49-46.39	7.63-45.78	10.38-44.25	13.73-42.72	17.09-40.59	18.92-37.84	20.14-35.1	21.67-33.26	24.72-33.57	28.69-34.48	31.74-35.1	33.87-35.4	38.76-39.37	53.71-50.35	82.4-63.48	124.21-63.78	171.81-29.3	215.7654.93	253.3190.73	291.75364.69	342.41560.91	409.24771.48	481.87996.4	525.82(R)1226.5	482.481419.68	321.661502.08	83.621409.61	-131.531136.78	-216.67755.31	-137.94381.47	26.25108.03	146.18-39.98	149.54-98.57	66.53-118.1	-16.17-126.65	-37.23-130	-1.22-127.56	45.78-122.38	65-120.24	55.24-122.68	37.84-126.34	29.6-126.95	31.43-125.43	36.32-124.21	39.98-124.82	40.59-127.26	39.06-130.92	37.23-135.5	36.01-138.85	34.18-139.77	32.04-137.63	31.13-133.97	34.48-131.53	42.11-130.92	50.35-131.84	54.93-133.67	55.24-134.89	53.41-135.5	53.71-135.5	57.98-134.89	65-134.89	71.72-135.5	75.38-137.63	75.07-140.69	72.33-144.04	69.27-146.48	68.05-148.32	69.27-150.15	72.94-152.89	78.13-157.78	83.01-163.88	85.45-170.29	84.23-176.39	80.87-182.5	77.51-190.12	76.9-200.5	79.35-213.32	82.4-227.66	84.23-241.39	83.62-253.6	82.7-264.59	83.31-275.27	85.14-285.64	87.28-294.8	88.2-300.9	87.89-303.34	89.11-301.51	93.08-296.02	99.79-286.87	107.73-273.13	115.36-254.52	122.07-231.93	128.17-207.52	133.36-182.8	136.11-158.69	134.58-135.19	129.39-112.92	122.68-92.47	117.19-74.16	114.44-58.9	113.83-45.47	112.61-33.57	107.73-23.19	99.79-14.95	90.94-8.24	85.14-2.75	84.233.05	87.288.85	90.3313.73	90.3317.4	87.2818.92	83.3119.23	81.4818.01	82.715.87	85.7513.43	88.211.9	88.8111.29	86.9811.29	84.8410.68	83.319.77	82.77.93	83.625.49	86.982.75	90.64-0.31	93.38-2.75	93.69-3.97	92.77-2.75	93.690	100.13.05	110.784.88	120.244.88	123.294.88	119.026.71	112.310.99	109.8616.48	115.3621.06	124.5123.19	13022.58	126.3419.23	116.8814.34	109.868.24	112.33.36	124.212.44	139.777.63	152.2817.09	160.5227.77	166.0235.71	172.1239.98	180.9743.95	195.0152.8	214.5469.58	236.2192.47	250.55115.36	247.5131.84	224139.77	186.46140.38	148.62137.94	120.24134.28	103.45126.95	93.38111.39	84.8483.01	74.7743.95	61.342.44	44.86-31.74	26.25-51.88	7.02-57.37	-9.16-53.41	-18.31-47	-20.45-43.33	-18.92-43.33	-17.09-45.17	-16.78-46.08	-16.78-44.86	-15.26-42.42	-10.99-39.98	-5.49-38.45	-0.31-37.54	3.36-36.93	5.19-35.71	6.1-34.18	6.71-32.35	8.24-32.04	12.82-35.1	24.72-44.25	48.22-57.07	85.45-64.09	132.14-47.91	179.7510.07	222.17118.41	261.54270.69	310.06449.83	376.28643.31	457.46850.22	532.531072.08	551.15(R)1286.93	461.431434.02	264.591435.55	31.131251.22	-132.75915.83	-149.84532.23	-39.37212.71	90.9415.87	140.08-72.33	90.64-103.45	5.8-117.19	-42.72-127.26	-32.35-130.62	5.8-126.95	30.52-121.46	28.08-119.93	12.82-122.07	3.05-124.21	3.05-124.82	7.63-126.34	11.29-129.09	12.82-131.84	11.9-133.06	9.77-132.14	8.85-130.92	10.07-130.62	11.9-131.23	13.12-132.14	12.82-132.75	12.82-133.06	13.43-132.45	14.95-131.84	16.78-131.53	19.23-131.84	21.67-132.75	23.8-134.58	25.33-136.41	26.55-137.33	28.08-137.94	30.21-138.24	32.96-139.77	35.1-142.52	36.93-146.18	37.84-149.84	38.45-153.5	38.45-157.17	38.15-161.44	38.15-166.02	39.06-171.2	39.98-177.61	40.28-186.46	39.37-198.06	37.54-211.79	35.71-226.44	34.18-240.48	33.57-252.99	32.65-264.89	31.74-276.49	30.82-287.17	31.13-296.33	32.04-303.65	33.57-307.62	36.32-307.62	39.67-303.34	44.56-294.19	50.96-280.46	57.98-263.06	65-242.61	71.11-219.73	75.68-195.62	78.13-171.51	77.82-147.71	75.68-124.51	72.02-101.93	67.75-80.57	63.78-60.73	60.12-43.95	56.76-30.21	53.41-18.92	50.05-9.16	46.39-1.22	43.034.58	39.678.54	36.9311.9	34.1815.56	31.7419.84	29.624.11	27.7727.16	26.5528.38	25.9428.38	25.3327.16	24.7225.94	24.4124.72	24.4124.11	25.3323.8	26.8623.19	27.7721.97	28.6919.53	29.315.87	29.612.21	30.529.16	31.137.63	32.047.32	34.187.63	38.768.54	46.6910.07	55.8512.51	63.1715.56	65.9218.92	65.3122.28	64.725.33	68.0528.38	75.0729.91	80.8728.99	79.0425.33	69.8919.84	59.214.04	55.249.46	60.427.63	72.0210.38	82.717.09	90.0325.94	95.5233.87	101.0138.45	108.6441.2	119.3247.3	135.561.04	156.2582.7	177.92106.2	191.35125.12	187.99135.5	165.41139.16	131.23140.69	97.05142.21	71.11141.3	55.54133.36	45.78113.22	37.8479.96	27.7737.84	13.12-5.19	-7.02-39.06	-30.52-57.98	-54.02-62.26	-69.89-56.76	-74.46-49.44	-69.27-45.47	-61.34-45.47	-56.76-47	-57.37-46.39	-60.12-43.03	-61.34-39.37	-59.2-37.54	-55.54-38.15	-52.49-39.98	-50.96-40.59	-49.74-38.76	-48.22-35.4	-45.17-32.65	-40.59-33.87	-32.65-41.5	-16.78-54.93	11.9-67.14	53.41-63.17	102.23-25.02	149.2360.12	190.73192.87	233.15362.85	288.09557.25	357.97770.57	429.991002.5	465.09(R)1240.23	404.051436.46	220.641516.11	-36.931418.15	-260.931142.88	-339.97765.38	-243.84397.95	-57.98127.87	81.79-24.41	97.96-92.16	18.01-119.63	-70.19-131.84	-101.32-135.19	-74.16-132.45	-33.26-128.48	-15.56-128.48	-24.72-131.53	-41.2-133.97	-49.13-133.06	-47-130.92	-41.5-130.92	-37.23-132.45	-36.32-133.97	-38.45-135.19	-41.2-135.5	-41.2-135.8	-38.45-135.8	-35.1-135.5	-32.96-136.11	-32.35-137.02	-32.04-137.33	-30.82-137.33	-28.38-137.33	-25.02-137.94	-21.36-138.85	-18.01-140.08	-15.26-140.69	-12.21-140.99	-8.85-140.69	-5.19-141.3	-1.83-142.52	1.22-144.65	3.66-147.4	5.8-150.45	7.02-153.81	7.32-158.08	7.63-163.27	7.63-169.68	7.93-177	8.24-184.94	8.24-193.48	7.93-202.94	7.02-213.93	5.8-225.83	4.58-239.26	3.97-253.6	3.66-268.25	4.27-281.68	5.19-293.27	6.71-303.04	8.85-311.58	11.29-318.91	14.65-324.1	18.62-325.01	23.8-319.21	30.21-306.7	38.15-289.61	46.08-269.78	53.41-248.11	59.51-224.91	63.17-199.89	64.09-173.95	62.87-148.32	59.81-123.9	55.54-101.32	50.96-80.57	46.69-61.95	42.72-46.08	38.76-32.65	34.48-21.36	30.52-11.29	26.86-2.44	23.54.58	20.459.77	17.417.4	10.3819.53	9.1621.67	8.5422.89	7.9322.58	7.0220.75	6.7118.31	6.7115.56	7.0214.04	7.6313.43	8.2412.82	8.8511.9	9.469.46	9.776.1	10.072.75	10.070.31	10.38-1.22	11.9-1.83	15.56-2.14	21.97-2.14	30.21-1.53	38.760.31	45.173.66	47.37.93	46.6912.21	46.3915.56	49.4417.7	54.9318.62	57.3717.7	51.8814.34	40.289.77	30.525.19	29.31.83	38.152.14	50.966.41	61.0414.04	67.1423.19	72.6331.13	80.8736.93	92.4742.11	107.7350.35	126.9565.61	148.9386.67	168.76109.25	178.53128.17	169.98140.08	143.74144.96	108.95145.57	76.9144.04	54.93139.47	41.81127.56	32.35104.68	21.6770.19	7.6328.08	-10.07-12.21	-30.52-43.03	-52.19-59.51	-72.33-62.87	-84.53-57.98	-86.36-50.96	-79.96-46.39	-71.72-44.56	-67.75-44.56	-68.97-44.25	-72.33-43.33	-73.85-41.81	-72.63-40.59	-69.58-39.37	-66.53-38.15	-64.39-36.32	-62.56-34.48	-60.12-32.65	-57.37-32.35	-53.1-36.01	-45.17-45.47	-27.77-59.81	3.36-71.11	47.3-63.78	97.35-20.14	144.3572.02	184.63211.18	225.22386.96	277.4586.85	343.02806.27	408.331042.79	430.30(R)1278.69	350.041462.1	151.671516.72	-106.811388.55	-312.51089.48	-361.33703.43	-240.17344.54	-48.5292.16	81.18-42.11	85.75-97.96	5.49-119.63	-71.72-129.7	-91.25-133.06	-61.65-131.53	-27.47-129.7	-18.92-130.92	-31.13-134.58	-44.25-136.41	-45.78-134.89	-38.76-132.45	-31.13-131.84	-27.16-132.45	-27.47-133.36	-29.91-133.67	-32.35-133.97	-33.26-134.28	-32.96-135.19	-32.96-136.41	-33.26-138.55	-33.57-140.38	-32.04-140.99	-28.99-140.38	-25.02-139.47	-20.75-139.47	-17.09-140.69	-14.34-142.82	-13.43-144.35	-13.12-145.26	-12.82-145.87	-11.9-146.48	-9.46-148.01	-6.1-149.54	-2.75-151.37	-0.31-152.89	0.92-154.42	1.53-157.17	2.14-162.05	3.05-168.76	4.58-176.09	7.02-183.41	10.07-190.73	13.43-198.97	16.48-209.66	17.7-223.08	17.09-238.34	14.34-253.6	10.38-267.94	5.8-281.07	2.44-293.27	1.53-304.26	4.27-312.81	10.68-317.38	18.31-317.69	25.63-314.03	31.43-306.7	36.93-295.1	43.64-279.85	51.88-260.93	60.12-238.65	66.83-214.23	71.11-187.99	72.94-161.74	72.63-136.11	70.19-112.92	65.61-91.86	58.9-72.63	51.27-54.63	44.25-38.45	39.67-25.02	38.15-14.95	38.15-7.93	37.84-2.44	35.13.66	30.5210.07	26.2516.17	23.820.75	22.5822.28	21.6721.36	20.1419.84	18.0119.23	16.1719.23	16.1719.53	17.719.23	19.8418.01	21.9716.78	24.4115.87	26.5515.26	28.3814.34	29.312.82	28.9910.68	28.088.85	27.476.41	28.083.36	30.210.61	34.48-0.92	41.2-0.31	50.352.14	59.814.88	65.927.02	66.537.63	62.878.24	59.210.07	59.5113.43	66.2217.4	74.7720.45	78.4320.75	74.7718.01	65.9212.82	59.516.41	60.421.53	68.970.92	80.575.8	90.3314.95	97.3525.02	104.3732.35	11236.01	121.4640.28	135.1950.66	154.1169.27	175.7893.38	193.18115.97	196.23130.92	180.05137.02	148.62137.94	114.14138.24	86.98139.16	70.8136.11	61.65122.99	52.896.74	41.258.59	25.6315.56	7.93-21.97	-10.07-46.69	-27.47-56.46	-42.42-54.02	-50.96-46.08	-52.19-39.06	-49.13-37.23	-46.39-39.06	-47.91-42.11	-52.49-43.33	-55.24-42.42	-53.1-40.59	-46.08-38.76	-38.76-37.54	-34.79-36.32	-35.4-34.48	-36.93-32.65	-36.32-30.82	-32.35-30.82	-25.02-34.48	-13.12-43.95	7.93-57.07	40.28-64.09	81.79-47.61	125.439.16	164.79115.66	201.72266.72	248.11447.39	312.81645.14	392.76856.93	466.311080.32	485.23(R)1294.25	396.731439.82	198.971443.48	-39.061265.26	-209.66936.58	-230.71555.42	-116.58231.93	26.8627.47	91.55-67.75	53.71-101.93	-26.86-115.66	-75.38-123.29	-64.7-125.12	-24.72-120.54	2.14-115.66	-0.31-115.05	-16.48-118.41	-26.86-121.46	-25.02-122.07	-18.01-122.07	-11.9-122.07	-9.46-122.07	-10.07-121.77	-12.21-122.07	-14.34-123.29	-14.65-124.82	-13.12-124.82	-9.46-123.9	-4.27-122.07	0.92-121.46	3.36-122.38	1.22-124.82	-4.88-127.56	-9.77-129.39	-10.07-129.7	-4.88-128.78	3.66-128.17	10.68-128.48	14.34-130.31	14.65-133.06	14.04-135.19	14.34-136.41	16.78-138.24	20.14-140.99	23.19-145.26	25.02-150.45	25.94-155.94	26.25-160.52	27.77-165.1	30.52-170.9	32.96-178.53	32.96-188.6	28.69-201.11	21.36-215.45	13.73-230.41	8.85-244.14	8.85-256.04	13.12-266.11	20.14-275.88	26.55-285.34	30.52-293.88	31.13-299.38	29.6-300.29	28.38-296.63	29.3-288.7	32.65-277.4	38.76-262.76	47-244.75	57.07-223.08	66.83-199.28	74.46-173.95	77.21-149.23	74.46-125.43	67.14-103.45	58.29-83.62	50.66-65.92	45.47-50.96	43.64-38.15	44.25-26.86	45.17-16.48	44.56-6.71	41.810.92	36.936.71	31.4310.38	27.4713.12	26.5515.56	28.6918.31	31.4320.45	32.6521.36	30.8221.67	27.4721.67	24.7221.67	24.7221.67	27.1621.36	30.2120.14	32.3518.62	32.0417.09	30.8215.87	29.9114.65	29.9112.51	30.829.16	32.355.19	33.871.53	35.1-1.22	36.32-2.14	38.15-1.22	42.721.53	50.056.1	58.5910.99	64.0914.65	6515.87	61.9515.87	58.916.48	59.5118.62	62.5620.75	63.7821.36	61.3418.62	57.0713.73	56.768.85	64.097.02	76.69.46	88.515.87	95.8323.8	99.1830.82	101.9334.79	107.4237.23	118.4142.72	136.4154.63	159.9173.55	182.895.52	195.62115.66	189.21130	163.88137.94	127.87140.38	93.69139.47	69.89135.19	56.46125.43	48.52106.81	40.5977.21	29.339.37	13.43-0.31	-7.02-32.04	-29.91-50.05	-51.27-54.63	-66.22-51.27	-70.8-46.69	-67.44-45.47	-62.26-46.39	-59.51-46.69	-60.42-45.17	-62.26-41.81	-61.95-38.76	-58.9-37.54	-55.54-38.45	-53.1-39.37	-52.19-39.37	-51.27-37.84	-49.74-35.71	-47-33.57	-42.72-33.87	-36.01-39.67	-21.97-52.49	3.66-66.53	41.2-68.97	86.67-40.89	131.5332.96	172.12155.94	213.93318.3	269.78505.37	344.85710.75	430.6934.14	493.77(R)1167.3	475.161371.77	334.171474.61	99.491409	-135.191163.33	-256.04801.09	-211.18433.65	-59.51155.03	72.63-5.49	96.13-77.82	22.58-107.73	-68.97-122.68	-108.03-128.48	-86.67-125.43	-44.86-119.02	-23.19-116.88	-29.91-120.24	-45.78-124.21	-54.32-124.21	-52.19-121.77	-46.08-120.54	-41.5-122.07	-40.89-124.82	-43.33-126.95	-46.39-127.87	-47.91-127.56	-47.3-126.95	-45.78-126.34	-45.17-126.34	-45.17-127.26	-44.56-128.48	-42.72-129.39	-40.28-129.7	-37.84-129.7	-35.4-129.39	-33.26-129.39	-31.13-129.39	-29.6-130	-28.38-131.84	-27.47-133.97	-26.55-135.5	-25.33-136.41	-23.5-137.63	-20.75-140.38	-18.31-144.65	-16.17-149.84	-15.26-155.33	-15.26-160.52	-15.56-166.02	-15.56-173.03	-15.26-181.27	-14.65-191.04	-14.34-202.03	-14.95-214.54	-16.78-228.27	-18.62-242.61	-20.75-257.26	-22.28-271.3	-23.19-284.73	-23.19-296.63	-21.97-306.09	-19.84-311.58	-16.48-313.42	-11.9-311.28	-5.8-305.48	1.83-296.02	10.38-282.59	19.84-264.89	28.69-243.53	36.32-219.42	42.11-193.48	44.86-167.24	45.47-141.6	43.64-118.1	40.28-96.13	36.32-75.99	32.65-57.68	29.3-41.5	26.55-27.77	23.8-17.09	20.75-8.24	17.7-0.61	14.956.41	12.8211.9	10.9914.95	9.4616.48	7.6317.4	6.118.92	4.8821.36	4.5823.19	5.1924.11	6.124.11	6.7123.5	7.3222.58	7.6321.06	7.9319.53	8.8518.01	10.6817.09	13.1216.78	16.1715.87	18.0113.73	18.6210.07	18.315.49	17.41.53	17.7-1.22	20.45-1.53	26.25-0.31	35.12.14	44.865.8	51.889.16	54.6312.21	53.4115.26	51.5718.92	53.7123.19	60.1226.86	66.2227.77	65.6125.33	57.3719.53	46.6913.43	42.428.85	48.528.54	61.6513.43	74.1622.28	82.0932.04	86.6739.67	91.5542.42	99.4943.33	112.347.91	13061.95	152.5985.14	175.17111.69	189.51133.67	186.16146.18	162.66150.15	126.65149.54	90.64148.32	64.39146.79	50.35140.08	43.64122.99	37.2392.16	26.5550.66	9.466.41	-12.51-30.21	-36.32-51.88	-57.98-57.07	-72.02-51.57	-75.38-43.33	-70.8-38.15	-63.78-37.84	-59.81-39.98	-59.81-41.5	-61.65-40.59	-62.26-38.15	-59.81-35.4	-56.15-33.26	-52.8-31.43	-50.66-29.91	-49.13-28.08	-47.61-26.25	-45.47-25.33	-41.2-27.77	-32.65-36.32	-14.95-51.27	14.95-65	56.76-62.26	104.06-24.11	149.2362.26	189.21197.14	232.24369.26	290.53565.49	365.6780.64	442.51013.49	479.74(R)1248.78	417.181439.21	230.711510.32	-29.31403.81	-254.521123.35	-335.08746.15	-242.61383.91	-61.95121.46	73.85-24.72	90.64-89.42	15.87-116.88	-65.92-129.7	-92.77-133.36	-65.61-129.09	-25.94-123.29	-9.16-122.07	-17.09-125.43	-31.13-128.48	-37.23-128.17	-33.87-126.65	-27.77-126.04	-23.19-126.95	-21.67-127.56	-22.89-127.26	-24.72-126.65	-24.72-126.95	-23.19-127.87	-21.67-129.09	-21.06-129.7	-21.06-129.7	-19.84-129.39	-17.09-130	-13.43-131.53	-10.38-133.67	-8.54-134.89	-7.32-135.5	-6.41-135.5	-4.88-136.11	-2.44-137.33	-0.31-139.16	1.22-141.91	2.14-144.65	3.36-147.71	4.88-150.45	6.71-153.5	8.24-156.86	8.54-161.44	8.85-166.93	9.77-173.34	10.68-180.97	11.6-190.43	11.29-200.81	10.38-212.1	9.46-223.08	9.77-234.68	11.29-247.5	12.82-262.15	13.12-277.4	12.21-291.75	11.29-303.65	11.9-312.19	14.04-316.77	17.7-318.6	22.58-317.38	28.08-313.11	34.48-305.18	41.81-292.97	49.74-275.27	57.98-253.3	65-228.27	69.89-202.33	72.02-176.09	72.33-149.54	71.11-122.99	69.27-97.35	66.83-74.46	63.78-55.54	59.51-40.59	54.32-28.38	49.13-17.7	44.56-7.63	41.21.22	38.458.24	36.3213.12	34.1816.78	32.3520.14	30.2123.19	28.3825.94	26.8627.47	25.3327.77	24.7228.08	24.7228.08	25.3328.08	25.6327.77	25.3326.86	24.4124.72	23.821.67	23.8