2.14	52.19
5.49	46.39
12.51	45.47
19.84	49.44
23.8	56.46
23.8	63.78
21.06	68.97
18.62	69.89
17.4	64.09
16.48	51.27
15.87	32.65
15.26	12.51
16.78	-3.66
18.92	-13.73
18.62	-19.53
13.73	-24.11
3.66	-29.91
-7.93	-35.71
-15.87	-37.84
-17.4	-35.4
-14.65	-29.91
-11.29	-25.63
-10.38	-24.72
-11.6	-25.63
-13.43	-25.94
-14.34	-23.5
-13.73	-19.53
-12.21	-15.56
-10.68	-13.12
-10.38	-12.21
-10.68	-12.21
-10.38	-14.04
-5.8	-20.45
8.24	-33.87
38.45	-55.24
91.55	-79.96
171.2	-101.62
274.66	-113.53
390.63	-110.78
504.76	-91.86
598.75	-52.19
648.8	17.4
624.69	126.34
501.4	283.2
275.27	488.28
-24.41	731.2
-336	987.55
-738.53	1372.68
-757.45	1400.15
-654.6	1275.33
-466.92	1017.15
-253.91	686.95
-79.65	367.74
12.51	126.95
21.67	-10.38
-15.56	-63.78
-52.49	-72.33
-62.56	-69.89
-49.13	-72.63
-29.6	-79.65
-19.23	-86.06
-20.45	-88.81
-26.86	-89.11
-30.82	-88.81
-30.52	-88.5
-26.55	-88.2
-22.58	-87.28
-20.45	-86.36
-20.45	-84.84
-21.06	-83.92
-21.06	-83.62
-20.14	-83.92
-19.53	-84.53
-19.84	-85.45
-21.06	-86.67
-22.58	-87.89
-22.89	-87.89
-22.28	-86.98
-21.06	-84.53
-19.84	-81.79
-18.92	-79.65
-18.62	-78.43
-18.92	-78.13
-19.53	-78.43
-20.45	-78.43
-20.45	-78.74
-19.23	-79.96
-17.09	-83.01
-14.95	-86.67
-13.73	-90.94
-14.04	-93.99
-14.95	-95.21
-15.87	-94.91
-16.48	-94.3
-16.78	-93.99
-16.48	-93.08
-15.56	-91.55
-14.04	-88.5
-12.21	-85.14
-10.99	-81.48
-10.99	-78.74
-11.6	-75.07
-11.9	-70.19
-12.51	-64.39
-13.73	-58.9
-15.56	-55.24
-17.4	-54.02
-19.23	-54.32
-20.75	-53.71
-22.28	-50.96
-23.8	-45.17
-24.41	-37.84
-24.72	-31.74
-25.02	-28.38
-26.86	-28.08
-29.91	-29.3
-33.26	-29.91
-34.79	-29.3
-33.57	-26.25
-29.6	-21.97
-24.72	-17.09
-20.14	-12.82
-16.78	-9.46
-14.34	-5.8
-11.29	-1.83
-7.32	2.44
-2.75	5.19
0.92	6.1
2.14	5.8
1.83	6.41
0.92	9.16
1.53	12.51
3.36	13.73
5.49	12.21
7.93	9.16
10.07	7.63
11.6	7.63
12.21	7.32
10.68	4.58
7.63	-1.22
4.88	-8.24
4.27	-14.04
6.41	-18.01
9.77	-19.84
12.82	-21.36
13.43	-22.58
11.9	-23.8
8.85	-24.11
7.32	-23.19
7.63	-21.97
9.77	-21.97
11.6	-24.11
11.9	-28.38
10.07	-32.65
7.93	-34.48
7.63	-32.65
9.77	-30.21
12.51	-29.91
14.34	-33.57
14.04	-39.06
12.21	-42.11
10.07	-41.5
9.16	-39.67
9.46	-39.37
9.77	-42.72
9.77	-47.61
9.77	-50.05
10.07	-47.61
10.68	-41.2
12.21	-35.4
12.51	-34.48
11.29	-40.28
9.77	-50.35
10.07	-59.81
11.9	-63.78
14.04	-62.87
13.73	-60.73
10.38	-60.12
6.41	-60.73
4.58	-61.04
5.8	-59.51
8.54	-57.07
10.99	-55.85
12.21	-55.24
12.82	-54.02
13.43	-50.96
13.43	-47.61
11.6	-46.39
7.32	-48.52
3.05	-53.41
1.22	-57.68
2.14	-59.2
4.27	-56.76
5.8	-52.49
4.88	-48.52
2.75	-47.3
0.92	-49.44
0.92	-53.1
3.05	-55.54
6.41	-55.54
8.85	-53.1
9.16	-50.35
6.41	-49.13
1.53	-49.74
-2.75	-50.35
-3.66	-50.35
-1.53	-49.44
1.83	-49.44
4.27	-50.66
4.88	-53.71
3.97	-57.07
2.75	-59.51
1.83	-60.12
0.61	-58.29
-0.61	-54.32
-0.31	-49.13
1.83	-44.25
4.88	-40.89
6.71	-39.37
6.71	-37.54
5.19	-32.96
6.1	-24.72
11.29	-13.73
18.92	-3.36
25.33	4.27
25.33	7.32
18.31	6.41
8.54	3.97
2.14	1.53
3.36	-0.31
11.9	0
22.58	1.83
29.6	6.71
30.82	14.34
27.47	24.11
22.89	32.65
19.23	34.48
16.78	25.63
14.65	7.32
12.51	-14.95
11.29	-34.48
11.9	-46.69
13.12	-54.32
11.9	-61.95
5.49	-72.33
-5.19	-82.7
-15.26	-87.59
-19.84	-84.84
-17.7	-76.9
-11.9	-69.58
-7.93	-68.36
-8.54	-73.24
-11.6	-80.26
-13.12	-83.92
-10.38	-81.48
-5.8	-74.46
-2.14	-66.22
-2.44	-60.12
-5.8	-57.68
-8.85	-58.9
-8.54	-63.78
-0.92	-75.07
18.92	-96.13
58.9	-124.82
126.95	-153.81
225.83	-173.65
347.29	-176.39
472.72	-160.83
579.22	-126.34
644.53	-65.31
642.4	35.4
546.26	187.38
342.71	394.29
46.69	645.14
-290.22	915.22
-795.59	1365.97
-866.09	1458.13
-805.36	1408.08
-642.09	1210.33
-424.19	899.66
-209.96	546.88
-53.1	233.15
19.53	14.04
19.53	-100.4
-13.73	-137.63
-39.37	-139.16
-41.5	-135.5
-27.77	-138.85
-14.65	-147.71
-11.29	-156.56
-14.34	-161.74
-17.09	-162.05
-15.26	-158.69
-10.07	-154.72
-5.8	-153.2
-5.19	-155.64
-7.93	-161.44
-11.29	-166.02
-12.21	-166.93
-10.07	-163.57
-6.71	-158.69
-3.05	-155.33
-0.92	-156.25
-0.31	-160.22
-1.22	-163.88
-3.05	-165.71
-4.88	-164.79
-6.1	-163.27
-5.8	-163.57
-4.27	-166.02
-2.44	-169.68
-1.83	-172.73
-2.44	-173.03
-3.36	-170.9
-3.66	-168.15
-2.44	-165.71
-0.61	-165.1
0.31	-166.63
-0.31	-168.46
-0.92	-169.37
-1.53	-169.37
-0.61	-168.76
0.61	-167.54
0.92	-167.24
0.31	-167.24
-0.92	-165.71
-0.92	-161.74
0	-157.17
1.22	-153.81
2.14	-152.89
2.44	-152.59
3.05	-150.76
3.05	-146.18
2.44	-140.69
0.31	-136.41
-2.75	-133.97
-5.19	-130.62
-5.8	-125.73
-5.49	-121.77
-5.8	-119.93
-7.32	-119.32
-9.46	-117.8
-10.68	-114.14
-10.07	-108.95
-8.24	-105.29
-6.71	-104.06
-7.02	-102.84
-8.54	-99.49
-9.77	-93.99
-9.46	-87.28
-6.71	-80.87
-3.05	-74.77
0.31	-68.36
2.75	-63.17
4.58	-59.51
7.02	-56.76
10.68	-52.8
14.65	-47
17.7	-39.67
17.7	-33.87
15.56	-31.43
12.21	-32.35
9.77	-34.18
9.16	-34.48
10.07	-32.04
11.6	-26.55
12.82	-20.45
13.12	-16.78
13.12	-16.78
12.21	-20.75
11.6	-26.55
11.29	-31.13
11.9	-32.35
12.51	-31.13
12.21	-29.6
10.38	-30.21
7.63	-32.35
5.8	-35.1
5.8	-36.01
7.02	-34.79
8.85	-32.04
10.38	-29.6
10.99	-28.69
10.38	-28.99
10.07	-29.6
10.68	-30.21
12.21	-30.21
14.04	-29.6
15.56	-28.99
15.87	-29.91
14.04	-33.26
10.99	-39.37
7.93	-46.69
6.41	-52.8
7.02	-55.54
9.16	-55.54
11.6	-53.41
13.43	-51.57
13.73	-51.27
13.43	-52.19
12.82	-53.41
12.21	-54.63
11.6	-54.63
11.29	-53.71
11.6	-51.88
12.21	-49.74
13.12	-47.61
13.12	-45.78
12.82	-43.95
12.21	-42.42
11.6	-41.5
10.99	-40.89
10.38	-40.59
9.77	-40.28
9.46	-39.98
8.54	-40.28
7.63	-40.59
7.02	-40.28
7.32	-38.76
8.54	-36.62
9.46	-34.48
10.07	-32.96
9.77	-32.04
9.77	-31.43
10.68	-31.43
12.21	-31.13
12.82	-30.52
12.51	-29.6
11.29	-28.38
9.77	-26.86
9.16	-25.94
10.07	-24.72
12.21	-23.5
14.04	-21.97
14.95	-20.14
14.34	-18.31
12.82	-17.09
11.29	-17.09
10.07	-17.7
9.46	-18.62
9.16	-18.62
9.46	-17.4
10.07	-16.17
10.68	-14.34
11.29	-12.82
11.6	-10.07
11.9	-6.41
12.82	-0.92
14.95	5.49
17.7	12.51
21.97	20.45
26.55	29.91
30.52	39.98
32.04	49.44
30.82	56.76
29.3	62.26
33.57	67.75
48.83	74.16
76.29	80.26
112.3	81.79
152.59	74.77
195.62	59.2
246.58	38.76
309.75	11.6
379.03	-34.18
436.71	-117.19
461.73	-245.36
437.93	-402.22
363.16	-549.32
244.45	-643.92
89.72	-667.11(R)
-94.3	-633.54
-296.02	-580.14
-497.74	-539.86
-675.96	-517.88
-807.5	-497.13
-873.41	-459.9
-865.48	-400.39
-792.54	-322.88
-679.63	-231.02
-562.13	-118.71
-464.78	12.82
-384.83	138.55
-301.51	216.06
-201.11	217.9
-94.3	156.56
-9.77	78.74
30.52	30.52
28.69	26.55
8.54	48.83
-5.8	68.66
-4.88	71.72
4.27	62.26
11.9	52.19
13.12	48.22
9.16	50.66
4.58	55.54
3.36	59.2
5.8	60.73
8.85	60.12
10.99	58.59
10.68	56.46
9.46	54.63
8.54	53.71
8.85	54.63
9.77	57.37
10.38	61.04
10.38	64.39
10.38	66.22
10.99	67.14
11.9	67.44
13.12	68.97
14.34	72.02
15.56	76.6
16.48	81.79
17.4	86.36
18.01	89.72
18.92	92.77
20.45	97.66
22.89	105.29
25.94	115.36
28.38	126.34
29.6	136.11
29.3	144.65
28.99	153.2
29.3	163.27
30.82	176.39
33.87	191.35
36.62	206.91
39.06	222.17
41.81	237.12
45.47	252.99
50.05	269.47
54.63	286.56
58.9	303.65
63.17	320.74
67.75	338.75
73.24	357.06
79.04	375.06
84.84	392.15
90.64	407.41
96.13	420.53
101.62	431.21
105.9	439.15
109.56	443.42
112.61	444.34
115.66	441.59
118.1	435.49
119.93	425.42
119.93	411.99
119.02	395.51
117.8	376.28
116.88	354.31
115.05	329.59
112	302.12
106.81	272.22
100.1	240.48
92.47	208.44
84.84	177
77.21	147.71
69.89	121.15
62.26	97.96
54.63	78.43
47	61.34
39.98	46.69
33.57	33.57
28.69	21.36
24.72	10.07
21.67	-0.31
18.62	-9.46
15.26	-16.78
11.6	-22.28
8.54	-25.94
6.71	-28.38
5.8	-30.52
5.49	-32.35
5.19	-34.48
4.58	-36.62
4.27	-38.76
3.66	-40.89
3.36	-42.72
3.36	-44.25
3.36	-45.78
3.05	-47.3
3.05	-48.83
3.36	-50.05
4.58	-50.35
7.02	-49.74
9.77	-48.52
12.21	-47.3
13.43	-47.3
13.12	-47.61
11.6	-48.83
9.16	-49.74
6.71	-50.66
5.19	-50.96
4.27	-51.27
3.97	-51.57
3.97	-51.88
4.88	-52.49
5.8	-52.49
6.1	-51.88
4.88	-50.96
2.14	-49.13
-0.31	-46.69
-1.22	-43.95
-0.61	-42.42
-0.31	-41.81
-1.53	-42.42
-3.97	-42.42
-5.49	-41.2
-5.49	-39.37
-3.97	-37.54
-2.44	-37.23
-2.14	-38.15
-3.05	-39.98
-3.97	-41.2
-4.88	-41.2
-5.49	-40.28
-6.71	-39.67
-7.63	-39.37
-8.24	-39.67
-8.54	-39.98
-8.24	-39.06
-7.63	-37.54
-7.32	-36.32
-7.02	-36.01
-7.02	-37.23
-7.63	-39.67
-11.29	-26.55
-11.9	-27.77
-13.73	-29.91
-14.65	-31.13
-14.65	-31.13
-13.43	-29.3
-11.29	-27.16
-9.16	-25.02
-7.63	-24.11
-5.49	-25.94
0.92	-33.26
17.09	-48.52
50.96	-71.41
110.17	-97.35
196.53	-119.02
304.87	-128.17
422.36	-119.32
532.23	-90.33
615.23	-35.71
643.31	52.49
584.41	181.58
418.4	357.06
152.28	577.09
-169.37	825.81
-474.24	1074.22
-790.1	1386.72(R)
-751.95	1352.54
-603.03	1166.99
-393.07	867.31
-186.46	527.65
-40.28	231.32
18.62	30.82
6.41	-67.75
-33.57	-95.52
-59.81	-93.69
-59.2	-90.03
-41.81	-94.3
-26.86	-101.93
-22.28	-107.42
-25.63	-108.34
-28.69	-106.51
-27.77	-103.76
-23.8	-102.23
-20.14	-102.84
-19.84	-105.9
-21.67	-109.86
-22.89	-113.53
-22.28	-115.36
-20.14	-115.36
-18.62	-114.44
-18.62	-114.14
-19.84	-114.75
-20.14	-115.97
-18.92	-117.19
-17.09	-118.1
-16.17	-119.02
-16.17	-119.93
-16.17	-121.77
-15.26	-123.9
-13.43	-126.95
-11.9	-129.7
-11.9	-132.14
-12.51	-133.97
-12.51	-135.5
-10.99	-137.63
-8.24	-140.69
-6.1	-144.65
-5.49	-148.32
-6.1	-150.76
-7.02	-151.37
-7.02	-150.45
-6.1	-149.23
-5.19	-148.01
-4.88	-147.71
-5.49	-147.4
-5.8	-146.48
-5.49	-144.35
-4.58	-141.6
-3.66	-138.24
-4.27	-134.89
-7.02	-131.53
-10.99	-128.17
-15.56	-124.82
-18.62	-121.15
-19.84	-116.88
-20.14	-111.39
-20.75	-105.29
-21.36	-98.57
-22.58	-91.86
-22.89	-85.14
-22.28	-78.13
-21.67	-70.5
-22.28	-63.17
-24.41	-56.46
-28.08	-50.96
-31.13	-47
-31.74	-42.72
-29.3	-37.84
-25.02	-32.04
-20.45	-25.63
-17.4	-19.84
-14.95	-14.65
-12.21	-10.07
-8.54	-5.8
-4.58	-2.14
-1.22	0.92
0.31	3.05
-0.61	4.27
-2.44	5.19
-4.27	5.8
-4.27	6.71
-2.75	7.63
-0.92	8.54
-0.31	8.85
-0.61	9.16
-0.92	9.77
-0.92	10.68
0	12.21
1.22	13.12
1.22	13.43
0	13.12
-1.22	13.43
-1.83	15.26
-1.22	18.92
0	24.41
0.31	31.13
-0.61	39.37
-2.14	49.44
-3.66	60.12
-4.27	69.27
-4.27	73.85
-3.97	73.24
-3.36	67.44
-2.75	58.29
-2.44	47.61
-1.83	37.23
-0.31	27.16
2.44	17.7
5.19	7.63
7.02	-3.36
7.02	-15.56
4.88	-27.47
2.44	-37.84
0.61	-45.47
0	-50.05
0.31	-51.57
0.61	-50.35
1.22	-45.78
1.83	-38.45
2.44	-28.69
3.05	-18.92
3.66	-10.38
3.36	-4.88
2.14	-2.75
0.61	-3.36
-0.61	-5.19
-1.53	-6.71
-1.83	-7.02
-1.83	-7.02
-1.53	-7.32
-1.22	-9.16
-1.22	-12.51
-1.53	-17.09
-1.83	-21.67
-1.22	-27.16
0.61	-33.87
3.36	-41.2
5.19	-47.91
5.19	-52.8
3.36	-55.54
0.31	-56.46
-1.53	-56.46
-1.53	-56.15
0	-55.54
0.61	-54.02
-0.31	-52.19
-2.75	-50.35
-4.88	-48.52
-5.8	-46.39
-5.19	-44.25
-3.36	-41.5
-1.53	-39.67
0	-38.45
0.61	-37.54
0.31	-36.32
-0.92	-34.79
-2.75	-32.65
-3.97	-30.21
-3.97	-27.47
-3.05	-25.02
-1.83	-22.28
-0.61	-18.92
0	-14.34
0.31	-8.85
1.22	-2.75
2.14	3.97
3.05	10.68
3.66	19.23
5.19	29.91
7.93	43.33
11.29	57.98
13.12	71.11
11.29	79.35
6.41	80.26
0	75.99
-2.75	70.19
0.31	67.75
8.24	70.5
16.78	78.13
21.67	86.98
21.36	95.21
18.01	102.54
14.95	107.73
13.12	108.34
10.99	102.23
7.93	87.89
5.19	69.58
5.19	53.71
8.54	45.47
11.9	43.33
10.07	43.03
1.22	40.28
-10.99	34.48
-20.45	30.21
-23.19	30.82
-20.45	35.71
-16.78	41.2
-16.48	43.95
-19.53	43.03
-22.89	40.59
-24.11	38.45
-22.58	38.15
-19.23	39.67
-16.78	42.72
-15.87	46.39
-16.48	49.44
-17.7	50.35
-15.87	46.08
-7.63	34.18
12.82	13.73
52.19	-13.12
116.88	-39.67
208.44	-57.37
320.43	-61.34
438.84	-49.44
546.26	-20.45
621.34	32.04
635.68	118.41
559.08	249.02
376.59	428.47
101.01	651.55
-217.59	899.35
-506.9	1139.83
-776.98	1408.69(R)
-718.99	1343.99
-558.47	1131.9
-347.29	817.57
-149.84	480.04
-20.75	198.36
20.45	16.78
-2.14	-67.75
-41.5	-90.94
-61.34	-91.25
-54.02	-92.47
-35.1	-99.18
-22.89	-107.12
-24.11	-112.3
-32.65	-114.14
-39.37	-114.75
-39.06	-114.75
-32.96	-113.83
-25.33	-112.61
-20.14	-111.39
-18.92	-111.08
-20.75	-111.08
-24.11	-111.69
-26.86	-111.39
-28.08	-110.47
-27.77	-108.95
-25.63	-108.34
-23.19	-109.86
-21.36	-112
-21.36	-113.53
-22.58	-112.61
-23.8	-109.25
-23.5	-106.2
-21.97	-105.29
-20.14	-105.59
-18.01	-106.2
-17.09	-104.98
-16.78	-103.15
-17.7	-101.32
-19.84	-100.71
-21.97	-101.93
-22.89	-104.37
-21.36	-106.81
-17.7	-108.64
-14.95	-108.64
-14.34	-105.59
-15.56	-99.49
-17.09	-92.16
-17.09	-86.67
-14.95	-84.53
-13.43	-86.98
-13.73	-91.86
-14.95	-95.21
-15.87	-94.3
-14.65	-88.2
-12.51	-79.04
-11.29	-71.11
-12.21	-66.22
-15.56	-64.7
-19.84	-64.39
-24.41	-62.56
-28.69	-58.59
-31.74	-54.02
-32.96	-49.13
-31.43	-45.47
-28.69	-42.11
-26.86	-39.67
-27.16	-37.23
-29.3	-33.87
-31.74	-29.3
-33.26	-24.41
-32.96	-19.84
-31.13	-16.17
-28.08	-13.43
-23.8	-10.68
-18.92	-7.02
-14.65	-3.66
-11.9	-1.22
-10.07	-0.31
-8.54	-0.31
-7.02	0
-5.19	1.53
-4.27	3.97
-4.88	6.41
-5.8	8.24
-5.49	7.93
-4.27	5.49
-3.66	0.92
-3.97	-4.27
-4.88	-7.93
-5.19	-9.46
-3.66	-9.46
-2.14	-10.38
-2.44	-13.43
-4.58	-18.31
-6.71	-23.8
-7.93	-30.21
-7.93	-36.62
-8.24	-42.72
-9.77	-47
-10.99	-49.74
-11.29	-52.49
-10.07	-57.37
-8.54	-65.31
-7.32	-73.85
-6.1	-79.04
-4.88	-79.04
-4.88	-77.51
-6.71	-77.51
-10.07	-80.26
-12.82	-83.31
-12.82	-83.31
-10.38	-79.96
-7.32	-76.6
-6.1	-76.9
-6.41	-80.26
-7.02	-83.01
-6.1	-82.7
-4.88	-79.35
-3.66	-75.68
-3.66	-74.16
-4.27	-75.68
-4.88	-79.35
-5.19	-82.4
-5.49	-83.62
-6.1	-82.7
-7.93	-80.26
-10.07	-78.13
-11.6	-77.82
-11.29	-78.43
-8.54	-78.74
-4.88	-78.13
-1.53	-75.38
-0.61	-71.41
-1.53	-68.36
-4.58	-67.44
-7.63	-69.58
-10.38	-73.24
-10.99	-74.77
-9.77	-72.02
-7.02	-64.39
-3.66	-56.46
-1.83	-51.88
-1.53	-52.19
-2.44	-55.85
-3.66	-59.2
-5.49	-60.42
-7.32	-60.73
-8.24	-61.34
-7.32	-61.04
-4.88	-58.59
-2.75	-53.71
-3.05	-48.83
-6.71	-47
-11.6	-49.44
-14.65	-55.54
-14.65	-61.65
-11.9	-64.39
-9.16	-62.87
-7.02	-58.29
-5.49	-54.02
-4.88	-53.71
-4.58	-56.76
-4.58	-60.12
-5.8	-59.81
-7.63	-55.85
-9.16	-50.96
-9.46	-48.52
-8.85	-49.74
-7.32	-52.19
-6.41	-52.19
-6.41	-48.83
-5.8	-42.42
-3.05	-35.1
2.75	-27.16
10.07	-18.31
15.56	-8.85
16.48	0
11.9	6.71
4.58	9.16
-1.53	8.24
-2.75	6.41
2.75	5.49
12.51	6.71
21.06	9.16
24.11	12.82
20.14	16.78
12.82	22.28
7.32	28.08
7.02	30.52
10.07	25.02
12.21	9.16
11.29	-13.43
8.85	-34.79
7.93	-49.13
8.24	-56.15
6.71	-60.73
0.31	-66.22
-10.38	-72.63
-20.45	-75.38
-24.11	-72.33
-20.75	-66.53
-15.26	-63.48
-12.21	-66.22
-13.43	-71.41
-16.48	-74.77
-18.31	-73.55
-16.48	-69.27
-13.12	-66.22
-9.77	-66.53
-8.54	-68.66
-8.85	-69.89
-9.16	-69.58
-6.1	-70.5
5.19	-77.51
30.82	-93.99
79.35	-118.1
156.25	-143.43
260.01	-161.13
379.94	-162.05
497.74	-140.99
592.35	-93.08
638.73	-10.99
605.47	112
466.61	282.59
218.51	502.32
-106.81	760.5
-440.98	1030.88
-850.83	1435.85
-858.46	1469.42(R)
-744.63	1347.05
-548.4	1084.59
-323.49	739.75
-128.48	395.2
-8.24	125.73
26.25	-34.48
2.14	-97.05
-34.48	-102.54
-50.66	-91.55
-41.81	-86.67
-22.89	-90.64
-10.99	-97.05
-10.99	-100.71
-17.4	-100.71
-21.97	-97.96
-21.36	-94.91
-17.7	-93.08
-14.04	-92.47
-12.21	-92.47
-12.21	-91.86
-12.82	-90.03
-13.12	-88.5
-13.12	-88.81
-13.43	-91.55
-13.73	-96.13
-13.43	-100.4
-12.21	-103.76
-10.99	-105.59
-10.68	-106.2
-10.68	-106.51
-10.68	-107.12
-10.38	-109.25
-9.46	-112.92
-8.24	-117.49
-7.02	-121.77
-5.8	-123.9
-4.58	-123.9
-4.27	-123.6
-4.88	-123.29
-5.8	-124.21
-6.1	-125.43
-5.49	-126.04
-3.97	-125.43
-2.75	-123.9
-3.05	-122.07
-4.27	-120.24
-5.19	-118.1
-4.58	-115.36
-2.44	-110.78
-0.61	-104.98
0	-98.57
-1.53	-92.47
-3.97	-87.59
-6.41	-83.62
-7.93	-80.57
-8.85	-76.9
-9.16	-71.72
-8.85	-65.31
-9.16	-58.29
-10.07	-51.88
-11.9	-47.3
-13.43	-44.25
-14.34	-41.5
-15.26	-37.54
-17.09	-32.65
-19.53	-26.86
-22.58	-21.67
-24.41	-16.78
-24.41	-12.51
-23.5	-8.54
-22.58	-4.88
-22.28	-1.53
-21.97	1.53
-20.45	5.19
-17.4	8.24
-13.43	10.68
-9.16	11.9
-5.19	12.21
-2.44	12.51
-0.61	13.43
0.61	14.34
1.83	14.34
3.05	13.12
3.66	10.68
3.66	7.02
2.75	3.66
2.44	0.61
3.05	-1.53
4.27	-3.36
4.88	-5.49
3.97	-8.85
1.83	-12.82
0	-17.4
-1.22	-21.06
-1.22	-24.11
-0.61	-27.47
-0.31	-31.13
-0.61	-35.71
-0.92	-39.98
-0.92	-43.03
0.31	-44.86
2.14	-45.47
4.27	-44.86
5.8	-43.33
6.71	-41.81
6.71	-41.2
6.1	-41.5
5.19	-43.33
4.58	-45.17
3.97	-46.08
3.97	-45.78
3.36	-43.64
2.44	-40.89
2.44	-38.76
3.36	-37.54
5.49	-37.84
7.93	-38.45
9.16	-39.06
8.85	-39.06
7.93	-39.37
7.02	-39.98
7.02	-40.89
7.63	-42.11
7.93	-43.64
7.32	-45.17
6.1	-45.78
4.88	-45.47
4.27	-43.95
5.19	-42.42
6.71	-41.5
8.24	-41.81
9.16	-43.03
8.85	-44.25
7.32	-45.17
5.49	-45.47
3.36	-45.47
1.83	-45.47
0.92	-45.78
0.92	-47.61
0.92	-50.35
0.92	-53.1
0.92	-55.24
0.92	-56.46
1.22	-56.46
2.14	-55.54
3.97	-54.93
5.8	-54.63
6.71	-54.93
6.41	-55.24
5.8	-55.54
5.8	-54.93
6.71	-53.71
7.32	-52.8
6.71	-52.49
4.27	-52.8
1.83	-53.1
0.61	-52.8
0.92	-50.96
1.53	-48.52
1.53	-46.39
1.53	-44.56
1.53	-42.72
2.14	-40.59
3.05	-37.54
3.66	-34.18
3.36	-31.43
2.14	-29.3
1.53	-26.25
1.83	-20.14
3.97	-10.99
6.71	-0.61
9.46	8.54
11.29	14.04
13.12	18.62
15.87	25.63
19.23	36.32
20.75	49.13
17.7	58.29
10.99	59.51
3.97	53.71
1.22	45.47
4.27	41.2
10.68	44.25
16.17	52.8
18.31	62.87
18.31	71.11
17.4	76.6
17.09	78.43
16.78	75.38
14.34	65.92
10.38	49.44
6.71	29.3
5.8	11.6
7.93	-0.31
9.77	-7.32
7.02	-12.82
-0.61	-18.92
-10.99	-25.02
-18.92	-28.38
-21.97	-28.08
-21.67	-25.33
-21.06	-23.8
-21.06	-23.5
-20.45	-23.19
-18.01	-20.75
-14.34	-16.17
-12.21	-11.6
-12.21	-8.85
-13.73	-7.32
-14.04	-6.1
-12.21	-4.27
-7.93	-3.66
-0.92	-8.24
11.9	-21.67
38.45	-43.33
89.11	-68.05
170.59	-87.89
279.54	-95.52
401.92	-87.89
517.27	-64.39
605.16	-20.75
641.17	54.02
596.31	171.2
450.44	338.44
204.77	553.28
-105.9	800.17
-414.73	1051.64
-773.01	1403.5
-760.19	1405.33(R)
-630.19	1253.36
-428.77	973.82
-217.59	635.38
-57.98	324.71
15.56	105.29
11.6	-8.85
-28.99	-45.47
-61.34	-46.39
-65	-43.03
-47	-45.78
-26.55	-52.49
-17.09	-57.98
-18.92	-60.73
-24.11	-61.34
-26.55	-61.34
-24.72	-60.12
-21.06	-57.68
-18.62	-54.63
-18.62	-51.27
-19.84	-49.44
-20.75	-48.83
-20.45	-48.83
-18.92	-49.44
-16.78	-49.44
-15.56	-49.13
-14.95	-49.44
-15.56	-50.96
-15.56	-52.8
-14.95	-53.41
-13.43	-53.1
-12.82	-52.49
-14.04	-52.8
-17.4	-54.63
-20.45	-57.37
-20.75	-60.12
-18.01	-61.95
-14.04	-62.56
-10.68	-62.26
-8.85	-61.34
-7.93	-59.81
-7.63	-58.59
-7.63	-57.37
-8.24	-55.85
-9.46	-53.41
-10.38	-50.35
-10.38	-46.39
-9.46	-42.11
-8.24	-37.54
-7.93	-32.35
-8.54	-26.86
-10.38	-21.36
-11.6	-15.87
-11.6	-10.38
-10.68	-5.8
-8.85	-2.14
-7.63	0.31
-6.71	2.44
-6.1	4.88
-7.02	8.54
-9.77	12.82
-14.95	17.09
-21.67	20.45
-27.77	22.58
-31.43	24.41
-32.04	26.25
-31.13	29.3
-30.52	33.57
-30.52	38.45
-31.13	43.03
-30.52	46.69
-28.08	50.05
-24.72	53.71
-21.06	57.68
-18.01	61.65
-14.65	64.7
-10.99	66.53
-7.63	67.75
-4.58	68.97
-3.36	69.89
-3.05	69.58
-3.05	67.75
-2.14	64.7
-0.92	62.26
0.92	60.73
1.83	60.42
1.83	59.51
1.83	57.07
1.83	53.1
2.44	48.22
2.44	43.33
2.14	39.37
0.61	36.32
-0.92	34.18
-1.53	32.96
-1.22	32.04
-0.31	31.43
0.31	30.52
0	29.6
-0.31	28.69
-0.31	28.08
-0.61	27.77
-1.83	28.08
-4.27	27.77
-6.71	27.47
-7.02	27.16
-3.66	27.77
1.53	28.69
5.49	28.99
5.8	28.38
2.44	26.25
-2.14	23.8
-4.88	21.67
-4.88	20.14
-3.36	19.23
-1.53	18.62
-0.61	18.01
-0.31	17.4
-0.61	16.48
-0.61	14.95
-0.61	13.12
0	11.29
1.22	10.68
2.75	11.6
3.97	12.51
3.36	12.51
0.92	10.07
-2.14	5.8
-4.27	1.53
-3.66	-1.22
-1.22	-1.53
1.83	0.31
3.97	2.44
4.27	4.27
3.97	5.19
3.05	5.8
1.53	7.02
-1.83	8.85
-6.41	10.68
-9.77	11.9
-9.46	12.51
-5.8	12.82
-1.53	12.82
0.92	12.82
0.61	12.21
-1.22	11.9
-1.22	12.21
0.61	14.34
3.66	17.4
5.19	20.14
3.97	21.97
0.61	22.58
-2.75	23.5
-4.58	24.11
-4.27	24.41
-3.05	23.5
-2.14	22.28
-2.44	21.06
-3.36	21.06
-3.36	22.28
-2.75	23.5
-2.14	23.19
-2.44	20.14
-3.36	14.34
-4.58	7.93
-4.88	4.27
-3.66	4.58
-1.22	7.63
2.14	10.99
4.58	11.6
5.49	10.68
4.27	10.38
3.66	13.43
5.49	21.67
10.99	32.65
17.7	42.72
21.36	49.13
19.23	49.74
12.21	46.08
5.8	41.5
4.27	39.98
8.54	42.11
16.17	46.69
21.97	50.96
23.5	53.71
21.06	55.54
18.01	58.59
16.48	61.34
16.48	60.12
16.48	50.96
14.65	33.57
11.9	12.82
10.68	-3.66
11.6	-12.21
11.6	-14.34
7.63	-15.56
-1.53	-19.23
-12.51	-25.02
-19.23	-28.38
-19.23	-26.55
-14.65	-21.67
-10.68	-17.7
-10.68	-17.4
-14.34	-20.14
-18.31	-21.67
-20.45	-19.84
-19.53	-14.95
-16.78	-9.77
-14.65	-6.71
-13.73	-5.8
-13.43	-5.19
-11.9	-3.97
-6.1	-5.19
8.85	-13.73
40.28	-32.04
96.74	-56.46
182.19	-79.65
292.05	-93.08
411.99	-91.86
523.99	-73.55
609.44	-30.21
643.92	50.96
596.01	182.5
441.28	370.18
180.66	606.08
-148.01	869.14
-470.58	1127.93
-830.38	1466.67(R)
-810.24	1458.13
-673.22	1299.44
-464.48	1014.4
-244.14	667.42
-72.33	342.41
14.95	104.37
21.67	-25.02
-13.73	-67.75
-47.3	-65.61
-55.85	-56.76
-43.95	-57.98
-28.38	-68.36
-20.14	-79.35
-19.23	-83.31
-20.14	-79.35
-18.62	-71.72
-15.56	-66.53
-13.73	-68.05
-14.34	-74.16
-17.09	-79.65
-18.92	-80.87
-17.4	-78.13
-12.82	-75.38
-7.63	-75.38
-4.27	-76.29
-4.27	-74.46
-6.1	-68.66
-8.24	-64.09
-9.46	-66.22
-10.99	-76.29
-12.21	-88.81
-12.82	-95.83
-11.29	-93.08
-7.93	-83.62
-3.66	-73.85
-1.83	-70.5
-3.36	-73.85
-7.02	-81.18
-10.07	-87.59
-9.77	-90.94
-5.49	-92.16
-0.61	-91.25
1.22	-88.81
-1.22	-84.84
-6.1	-81.79
-9.46	-81.48
-9.16	-84.84
-5.19	-90.03
-1.22	-93.38
0.31	-92.16
-0.61	-87.28
-2.75	-82.7
-3.97	-79.35
-3.36	-76.9
-1.53	-73.85
-0.61	-70.5
-1.83	-68.36
-4.58	-68.97
-7.93	-70.5
-10.07	-69.58
-10.07	-64.09
-8.54	-56.15
-7.63	-50.05
-8.54	-49.13
-10.38	-50.96
-12.51	-50.35
-13.12	-45.17
-12.82	-36.93
-14.04	-28.69
-18.01	-22.89
-23.5	-18.62
-27.16	-13.43
-26.25	-7.02
-19.23	-0.92
-8.85	2.75
0.61	4.27
5.49	5.49
4.88	8.24
1.53	12.51
-1.53	16.48
-2.44	18.01
-1.83	16.48
-0.31	13.12
1.22	11.6
3.97	13.12
7.63	18.01
10.99	23.19
12.21	25.02
10.07	21.97
5.19	14.95
0.92	8.24
-0.61	4.88
0.92	5.19
3.97	7.02
6.41	8.85
7.32	10.07
7.63	12.21
8.24	14.95
8.85	15.87
8.54	12.82
6.71	6.1
3.97	-0.31
2.14	-2.14
2.14	1.53
3.05	6.1
3.36	6.71
2.14	2.14
1.22	-3.66
1.53	-5.8
2.75	-2.44
4.27	3.36
4.58	6.41
4.88	4.88
6.41	0.92
10.68	-0.92
15.26	1.22
17.7	6.71
16.48	11.29
12.21	11.29
8.54	7.02
8.24	2.14
11.29	0.61
16.17	4.58
19.53	11.6
19.53	17.09
16.78	17.09
12.51	12.51
8.24	7.32
6.41	6.1
6.71	10.38
8.54	17.7
10.68	24.41
11.9	27.16
12.21	25.63
11.9	22.28
11.29	19.84
10.68	19.23
9.46	20.14
8.85	22.28
8.54	24.72
9.16	27.77
10.07	30.82
10.68	32.65
10.68	33.57
10.99	34.48
11.6	36.62
13.12	40.28
14.34	44.86
14.95	49.13
14.95	52.19
15.87	53.41
16.78	53.41
17.4	52.19
16.48	49.74
14.04	46.39
10.68	43.33
8.24	41.2
7.93	40.28
9.16	39.98
10.68	41.2
12.51	43.95
13.43	48.22
13.12	53.71
11.9	58.29
10.07	60.12
9.16	59.81
9.46	59.2
10.99	60.42
13.73	64.39
16.48	70.19
18.31	75.99
19.53	80.87
19.84	84.84
20.14	88.81
21.67	94.3
25.63	101.01
30.82	108.95
34.18	116.27
32.65	120.54
26.55	120.24
19.23	115.97
16.17	109.86
20.45	105.9
29.91	106.2
39.06	110.17
42.42	115.97
39.67	121.77
33.87	126.65
29.3	129.7
27.47	128.78
27.77	120.85
27.47	104.68
26.55	83.31
26.25	64.09
26.86	51.88
26.55	46.69
21.67	44.25
11.9	40.28
0.61	34.18
-6.71	29.3
-6.41	28.38
-0.61	32.35
4.88	37.54
6.41	40.89
3.97	40.89
0.61	38.15
-0.61	34.48
0.61	32.04
2.14	31.43
2.75	32.65
2.14	34.79
1.83	36.62
3.05	36.32
7.93	30.52
19.84	16.78
44.86	-5.49
92.47	-32.35
169.68	-56.15
275.88	-68.97
398.56	-65.92
518.19	-46.39
613.4	-6.1
660.71	62.56
630.49	170.59
498.96	326.54
261.84	531.01
-53.41	772.4
-381.77	1026.31
-647.58	1255.49
-807.8	1445.92(R)
-691.83	1328.43
-491.03	1074.22
-266.72	741.27
-81.79	413.82
20.14	163.57
36.93	18.62
4.27	-37.54
-31.13	-44.56
-42.11	-39.06
-29.91	-38.76
-12.21	-45.17
-3.05	-53.1
-3.97	-58.59
-8.54	-61.34
-10.68	-62.56
-8.54	-63.17
-4.58	-63.17
-1.53	-62.56
-0.31	-62.26
-0.61	-62.26
-1.53	-63.48
-2.44	-66.22
-2.44	-68.05
-2.14	-68.36
-1.22	-65.61
0	-61.65
1.22	-57.98
2.44	-56.76
3.36	-57.37
3.36	-59.51
2.44	-62.56
1.22	-65
0.61	-66.22
0.61	-65.31
1.22	-63.48
1.83	-61.34
1.83	-60.42
1.83	-60.73
2.44	-61.65
3.66	-62.26
4.88	-62.56
5.8	-62.26
6.1	-61.34
7.02	-60.42
8.24	-59.81
9.46	-59.2
9.77	-58.29
8.54	-56.76
6.71	-54.93
5.49	-52.8
6.1	-50.35
8.54	-46.69
10.99	-41.81
11.6	-36.32
10.38	-31.43
7.32	-29.3
4.88	-28.99
3.36	-29.3
3.36	-28.38
3.66	-26.25
2.75	-24.41
0.92	-22.58
-1.83	-20.14
-3.97	-15.87
-5.8	-9.77
-7.63	-3.97
-9.46	0
-11.29	2.14
-12.21	3.66
-11.6	6.1
-9.16	10.38
-5.8	15.56
-2.44	21.06
0.61	25.63
3.05	28.69
5.19	30.82
7.32	32.65
10.07	35.1
13.43	37.23
16.78	39.06
19.23	39.67
19.53	39.37
18.92	38.76
17.4	38.76
16.78	39.67
16.48	40.28
16.78	40.28
16.78	39.06
16.78	37.23
17.09	35.71
17.4	34.48
18.01	33.87
18.31	33.26
18.62	32.35
18.92	31.13
19.53	29.91
20.14	29.3
21.36	28.69
21.67	27.16
21.06	25.33
19.84	22.89
18.62	20.14
17.7	18.01
17.4	16.17
17.7	14.95
18.62	13.73
20.14	13.12
22.58	12.82
24.72	11.9
26.25	10.07
26.25	7.02
25.33	3.97
25.02	2.14
25.63	2.14
26.86	3.36
27.16	4.27
25.33	4.58
22.58	5.19
19.84	7.02
18.92	10.38
20.14	14.34
21.67	17.4
22.58	18.62
22.58	18.31
22.28	17.09
22.58	15.87
23.8	15.26
24.72	15.56
25.02	16.17
24.11	17.09
22.58	17.09
21.06	15.56
19.84	11.6
19.23	5.8
18.62	-0.92
18.62	-5.49
19.23	-6.71
20.14	-4.27
21.36	0.31
22.28	4.27
22.58	5.49
22.89	3.97
23.19	0.61
23.19	-2.75
22.89	-4.88
21.97	-5.19
21.36	-4.58
21.06	-3.05
21.06	-1.53
21.36	0
21.97	1.22
22.28	2.44
22.28	3.66
21.36	4.58
19.84	4.88
17.7	3.97
15.87	1.83
14.95	-1.53
15.56	-5.49
16.78	-8.54
18.31	-10.07
19.84	-9.46
20.14	-7.93
20.45	-5.49
20.45	-2.75
20.75	0.92
21.06	5.49
21.67	10.68
22.28	16.17
23.5	21.67
25.02	28.08
27.47	36.32
30.82	45.78
34.79	55.85
38.45	65.31
39.67	73.55
36.93	78.74
30.52	79.35
24.11	75.38
21.67	69.58
25.33	65.92
33.26	67.14
40.89	73.85
44.56	83.92
43.33	94.6
39.98	103.76
36.93	108.64
35.1	106.2
33.87	94.91
32.65	75.99
31.43	54.32
31.74	35.71
33.87	25.02
34.79	20.75
32.65	18.62
25.33	14.34
15.56	6.71
6.71	-0.92
2.75	-4.27
3.05	-3.05
4.27	0.31
4.27	2.14
2.44	0.92
1.22	-2.14
1.22	-4.27
2.14	-4.88
3.05	-3.66
3.05	-2.44
2.44	-2.75
2.44	-4.58
4.27	-7.93
8.85	-14.04
19.53	-24.72
41.81	-41.81
83.62	-63.17
152.59	-83.62
249.33	-96.13
364.38	-95.52
482.79	-80.57
585.02	-48.22
649.72	9.77
647.28	104.37
550.23	245.36
347.29	435.49
56.46	667.42
-266.11	919.49
-725.71	1333.31
-772.4	1393.13(R)
-688.17	1302.8
-507.81	1070.25
-289.61	750.43
-99.18	425.42
14.34	169.37
40.28	14.65
9.77	-51.88
-30.52	-67.14
-47.91	-67.14
-39.37	-69.58
-21.36	-75.68
-9.46	-81.18
-8.24	-83.01
-12.21	-82.09
-14.95	-79.65
-14.34	-77.21
-11.6	-75.99
-8.85	-76.6
-7.93	-79.04
-8.54	-82.4
-10.38	-85.14
-11.6	-86.36
-11.29	-85.75
-9.46	-84.53
-6.71	-83.31
-4.58	-83.01
-3.97	-83.01
-3.66	-83.31
-3.05	-83.31
-1.83	-83.01
-0.92	-83.01
-0.92	-83.31
-2.44	-83.31
-3.66	-83.62
-4.27	-83.31
-3.97	-83.01
-2.44	-82.4
-1.83	-81.79
-1.83	-80.87
-2.75	-79.35
-3.05	-77.21
-2.14	-74.77
0	-72.02
2.44	-69.89
3.97	-68.36
3.97	-67.44
3.05	-68.05
2.14	-69.58
1.53	-70.8
1.22	-70.19
1.22	-67.44
0.92	-62.26
0	-57.07
-1.22	-53.41
-1.83	-50.66
-1.83	-48.52
-1.53	-45.17
-1.53	-40.59
-2.14	-36.32
-3.97	-33.26
-6.41	-31.74
-8.85	-30.82
-10.68	-28.99
-12.21	-24.72
-13.43	-17.09
-13.73	-7.93
-13.73	0.61
-14.04	6.41
-14.34	8.85
-14.95	10.38
-14.95	12.82
-13.43	17.7
-10.68	24.72
-7.93	31.74
-5.8	37.54
-4.27	40.59
-1.83	41.81
1.53	42.42
6.1	43.33
10.07	44.86
12.82	46.39
13.43	45.78
12.21	42.72
10.68	38.45
9.46	35.1
9.16	34.18
10.38	35.71
11.6	36.62
11.9	34.79
11.6	30.52
10.68	25.94
10.07	23.19
9.46	23.5
8.85	25.02
8.54	25.94
8.54	26.25
9.16	25.94
9.16	25.94
9.16	26.55
8.85	26.86
8.85	27.47
9.77	28.38
10.99	28.99
11.9	28.69
12.21	26.86
12.21	24.41
11.6	21.97
10.99	20.45
10.99	19.53
11.6	18.01
13.43	14.95
15.26	11.29
16.48	7.93
16.17	5.19
14.65	3.05
12.51	0.92
10.68	-0.61
9.46	-0.92
9.46	-0.92
10.99	-2.14
12.82	-4.88
14.65	-8.54
15.56	-10.99
16.17	-11.6
16.17	-10.99
15.56	-11.29
14.04	-14.04
11.29	-18.31
8.85	-22.58
7.63	-25.63
8.85	-27.47
11.6	-29.3
14.04	-31.74
14.34	-34.79
13.43	-37.23
12.21	-36.93
12.21	-34.79
13.12	-33.26
13.43	-35.4
12.82	-41.81
11.9	-50.35
12.21	-57.07
14.04	-58.9
16.48	-57.07
17.4	-54.63
16.17	-54.32
12.51	-56.46
8.85	-58.59
7.02	-57.98
7.32	-53.41
9.46	-47.3
11.29	-41.81
11.9	-39.06
11.9	-38.76
11.9	-39.67
12.51	-40.59
12.82	-41.81
12.21	-42.11
10.38	-42.11
8.54	-41.81
7.93	-42.42
7.93	-45.17
8.24	-49.74
8.24	-54.63
8.85	-57.68
10.38	-57.07
12.51	-53.1
14.34	-47.3
15.26	-41.2
15.56	-34.79
15.26	-29.3
15.56	-23.5
16.17	-17.09
18.31	-10.07
21.67	-2.44
25.33	5.19
27.16	10.07
25.33	10.38
20.45	5.8
15.56	-1.53
14.34	-8.85
18.62	-11.9
26.25	-9.46
33.26	-3.05
37.23	3.66
36.93	7.93
34.18	7.93
30.82	3.97
27.16	-4.27
23.5	-16.78
20.14	-34.79
18.31	-55.54
19.23	-73.85
21.67	-86.36
21.67	-94.3
16.48	-101.01
5.8	-108.95
-5.8	-116.27
-12.82	-119.32
-13.12	-115.97
-9.46	-108.64
-6.1	-102.84
-5.49	-100.71
-5.8	-101.93
-5.49	-104.68
-4.27	-106.81
-3.36	-108.95
-4.27	-110.78
-5.49	-112
-6.1	-112.61
-5.19	-112.61
-1.83	-113.53
5.49	-119.63
21.67	-135.5
54.32	-161.44
113.22	-192.26
202.33	-218.81
316.47	-231.02
441.28	-224
555.73	-196.84
638.12	-145.87
660.4	-61.04
591.74	69.27
412.9	252.08
131.84	483.4
-206.6	744.93
-527.04	1004.03
-857.54	1332.40(R)
-818.79	1306.76
-664.98	1127.01
-444.03	824.28
-219.42	467.83
-50.96	140.99
28.69	-93.69
28.38	-219.12
-9.46	-258.18
-40.59	-253.91
-44.56	-242.61
-28.99	-241.7
-11.9	-250.85
-5.19	-261.84
-7.93	-269.17
-13.43	-271
-15.56	-270.08
-13.43	-267.94
-9.16	-265.5
-5.19	-262.45
-3.05	-259.09
-3.05	-255.43
-3.97	-252.69
-4.58	-251.16
-4.88	-250.55
-4.27	-249.94
-3.05	-248.41
-1.53	-245.67
0.31	-242.31
1.22	-238.95
1.53	-236.51
0.92	-234.07
0.31	-231.02
-0.31	-227.36
-0.92	-223.69
-1.53	-220.95
-2.44	-219.42
-3.36	-218.51
-3.66	-217.29
-3.05	-215.45
-2.14	-213.32
-0.92	-210.57
0	-207.21
0.92	-203.25
1.83	-199.28
2.44	-195.92
2.75	-193.18
2.75	-190.73
2.75	-187.99
3.36	-184.63
3.97	-180.97
4.27	-176.7
4.58	-172.42
3.97	-167.85
3.36	-162.66
2.44	-156.86
1.83	-149.84
0.92	-141.6
0.31	-132.14
-0.92	-122.99
-2.75	-114.44
-4.88	-107.12
-7.02	-100.1
-8.54	-92.77
-9.77	-85.14
-10.38	-77.21
-10.99	-69.89
-11.9	-62.87
-13.12	-56.15
-14.04	-49.13
-14.34	-41.81
-13.73	-34.48
-12.21	-27.16
-10.07	-20.14
-7.93	-14.04
-6.1	-7.93
-4.27	-2.14
-1.83	3.97
1.22	10.07
5.19	14.95
8.54	18.01
10.99	19.53
12.21	19.84
12.82	20.45
13.12	21.36
13.12	22.28
13.12	22.58
13.12	21.36
12.82	19.23
12.82	17.09
12.21	15.56
10.68	14.95
9.16	14.65
7.63	14.34
6.41	13.12
5.19	11.29
4.27	9.16
3.97	7.93
4.58	8.24
6.41	9.16
8.54	9.77
9.77	10.07
9.77	9.46
9.46	9.16
8.85	8.85
8.85	7.93
9.16	6.1
9.77	4.27
10.68	2.75
11.9	3.05
12.21	3.66
11.6	4.58
10.07	4.58
8.85	3.97
8.85	3.66
9.77	3.36
10.99	3.05
11.9	2.14
12.21	1.53
12.51	1.22
12.51	0.61
12.51	-0.31
12.51	-1.53
12.82	-2.44
13.43	-3.05
14.04	-3.97
-14.34	-111.08
-16.78	-112.3
-16.78	-113.83
-14.34	-116.27
-10.68	-118.71
-8.54	-120.85
-7.93	-120.85
-8.24	-117.8
-7.63	-112
-5.19	-105.59
-2.44	-101.93
-1.53	-103.45
-3.97	-109.56
-8.24	-115.66
-11.9	-118.41
-12.82	-115.97
-11.29	-109.56
-8.54	-102.23
-7.63	-95.21
-8.85	-88.81
-11.29	-83.62
-13.73	-79.65
-14.95	-78.43
-15.56	-79.96
-16.48	-83.62
-18.01	-85.75
-19.84	-83.62
-20.75	-77.21
-21.67	-68.97
-22.58	-63.78
-23.8	-63.78
-24.11	-67.44
-23.5	-68.97
-21.97	-65
-21.06	-55.85
-21.06	-46.69
-20.45	-41.2
-17.09	-40.28
-10.68	-41.2
-2.75	-39.67
4.27	-35.71
7.32	-31.13
6.1	-28.99
2.14	-29.91
-1.83	-31.74
-3.66	-31.74
-2.75	-29.3
-1.22	-26.25
-0.31	-25.33
-0.61	-27.16
-0.92	-30.52
-0.61	-32.96
0.92	-33.26
3.66	-32.35
5.49	-32.35
6.1	-33.26
4.27	-34.79
1.53	-35.71
-0.31	-35.4
0	-34.18
1.53	-33.26
3.36	-33.26
3.66	-35.71
2.75	-39.98
1.53	-46.39
0.92	-52.19
1.22	-54.63
2.14	-53.1
2.75	-49.44
3.36	-47.91
3.66	-50.35
4.27	-55.85
5.49	-60.42
6.41	-61.04
7.02	-58.9
6.41	-57.37
5.19	-60.12
3.66	-67.44
2.75	-75.07
2.44	-78.43
3.36	-75.99
3.97	-71.72
3.97	-69.89
2.44	-72.02
0.31	-76.29
-0.61	-77.82
-0.31	-75.99
1.53	-72.33
3.05	-69.89
3.36	-70.5
2.75	-72.94
2.44	-75.07
3.97	-74.16
7.02	-70.8
9.46	-66.53
9.77	-63.48
7.02	-63.78
3.66	-66.83
1.53	-70.5
2.14	-72.33
3.66	-71.41
3.97	-69.27
1.53	-68.05
-1.53	-69.58
-2.14	-72.94
1.22	-75.99
7.32	-76.6
12.21	-74.46
12.21	-71.41
7.02	-70.19
-0.31	-72.63
-5.19	-77.21
-5.49	-81.79
-1.53	-83.01
2.75	-79.65
5.49	-72.94
5.49	-65.31
4.88	-59.51
4.88	-57.68
6.41	-60.73
7.63	-67.14
8.24	-73.24
7.02	-75.99
4.27	-74.77
1.83	-70.8
0.61	-66.22
0.92	-63.78
2.44	-63.17
4.27	-63.17
4.88	-63.78
4.88	-63.78
4.88	-62.56
6.1	-59.2
8.24	-53.41
10.07	-47
10.99	-41.2
10.68	-37.23
10.68	-34.48
13.43	-30.82
18.92	-24.41
25.02	-15.26
27.77	-6.71
24.72	-3.05
16.78	-5.8
8.85	-12.51
7.02	-17.09
12.82	-14.95
23.19	-6.71
32.04	2.14
35.4	7.02
32.35	8.24
25.33	8.85
18.31	10.99
13.43	11.29
11.29	3.36
12.21	-15.26
14.95	-40.28
18.92	-63.78
20.45	-79.65
16.48	-86.67
7.63	-86.98
-3.05	-85.14
-11.29	-84.53
-14.04	-85.14
-12.51	-86.67
-10.99	-87.89
-11.29	-88.2
-12.51	-86.36
-12.82	-83.62
-10.68	-81.79
-7.02	-80.87
-4.58	-80.87
-3.97	-80.26
-4.58	-77.82
-5.19	-74.16
-5.49	-73.24
-4.58	-79.04
0.61	-93.99
16.48	-118.1
52.19	-147.09
117.49	-173.95
214.23	-191.96
333.56	-195.01
456.54	-179.44
559.39	-144.65
621.34	-84.23
617.98	12.51
524.29	156.56
328.06	355.53
43.03	605.16
-283.2	883.79
-781.56	1363.83
-858.15	1463.62(R)
-806.58	1414.49
-651.86	1212.77
-439.15	898.13
-224.91	543.21
-63.78	227.97
14.65	7.93
19.53	-105.9
-11.29	-140.38
-37.84	-137.33
-42.11	-129.09
-29.3	-128.48
-14.65	-133.97
-7.32	-139.16
-7.63	-140.99
-10.38	-139.77
-11.29	-136.41
-10.07	-131.84
-7.02	-128.78
-3.66	-130.92
-0.92	-137.94
0.31	-146.48
0.61	-151.37
0	-148.93
-0.61	-141.91
-0.61	-135.19
0.61	-132.45
3.05	-134.58
5.49	-139.16
6.41	-143.13
5.19	-145.57
2.75	-145.87
1.22	-144.65
1.53	-142.21
3.66	-140.38
5.49	-140.38
5.49	-142.21
3.36	-144.35
0.31	-146.18
-2.14	-148.01
-2.44	-149.84
-1.22	-152.28
0.92	-153.81
3.36	-154.11
4.27	-152.89
4.58	-152.59
4.27	-153.2
3.97	-154.72
4.27	-155.33
5.19	-153.5
6.1	-150.45
6.71	-147.71
6.71	-147.4
7.02	-149.23
7.32	-151.37
7.63	-150.45
7.63	-145.87
6.71	-138.55
5.49	-131.53
4.58	-127.26
4.27	-125.43
4.58	-124.82
4.27	-123.29
3.05	-119.93
1.22	-115.36
0	-109.86
0.31	-104.37
1.53	-99.18
2.44	-95.21
2.75	-93.08
2.14	-92.77
1.53	-93.08
1.53	-92.47
1.83	-90.03
2.44	-85.75
3.66	-80.87
5.8	-75.68
9.16	-70.5
13.73	-65.31
18.01	-59.81
21.06	-54.02
22.58	-48.83
21.97	-44.56
20.75	-41.81
19.53	-41.2
18.92	-41.81
19.23	-42.11
20.14	-41.81
20.75	-39.67
21.36	-36.62
21.97	-32.96
23.19	-29.91
24.11	-28.08
23.8	-28.38
21.36	-30.52
18.01	-33.26
15.26	-36.32
14.65	-39.06
16.17	-40.28
18.62	-40.28
21.06	-39.06
21.97	-37.54
21.36	-37.23
19.84	-38.45
18.01	-41.5
16.48	-43.95
15.87	-44.86
16.48	-44.25
17.09	-43.03
17.7	-42.72
18.62	-43.33
20.14	-44.25
22.58	-45.47
23.5	-47.61
21.97	-51.57
17.4	-57.07
12.21	-61.95
9.77	-64.7
11.29	-64.39
16.17	-61.65
20.45	-58.29
22.58	-55.85
21.36	-54.93
19.23	-55.24
17.7	-55.85
18.01	-56.15
18.31	-56.76
17.4	-58.9
14.34	-62.26
10.38	-66.22
7.63	-68.05
7.93	-66.53
11.29	-62.56
15.56	-57.68
18.01	-54.63
18.31	-54.32
16.48	-56.15
13.73	-57.98
11.29	-58.59
10.07	-56.76
10.68	-53.41
12.21	-49.74
14.04	-47.3
15.26	-46.08
15.26	-45.47
13.73	-44.25
12.21	-42.11
10.99	-39.37
9.77	-37.23
8.85	-35.4
7.63	-33.57
7.32	-31.74
7.63	-29.91
8.24	-28.69
8.54	-28.38
8.54	-28.38
8.54	-27.47
9.16	-25.63
10.38	-23.19
11.29	-21.36
10.68	-21.36
9.16	-23.19
7.02	-25.33
5.19	-26.86
4.58	-26.55
5.19	-25.33
5.8	-24.41
6.41	-24.41
5.8	-25.33
4.88	-25.94
4.27	-24.72
3.97	-21.06
4.88	-15.87
6.41	-9.46
8.54	-3.66
10.99	1.53
14.34	7.63
19.23	15.56
24.11	25.33
25.94	35.71
23.8	43.03
18.01	45.17
11.29	42.11
8.54	36.62
11.29	32.96
19.53	34.79
28.69	41.2
34.79	49.44
36.01	56.76
32.04	61.65
26.25	63.48
21.36	61.34
18.92	53.41
18.01	38.76
18.62	19.84
19.53	1.83
21.06	-10.07
21.36	-14.95
18.31	-16.48
11.29	-18.92
1.83	-23.19
-6.41	-26.55
-9.77	-25.94
-8.54	-21.06
-5.49	-14.04
-3.97	-8.54
-4.27	-4.88
-5.49	-3.05
-5.8	-1.22
-4.88	1.22
-3.66	3.05
-3.36	4.27
-4.27	4.88
-5.8	4.88
-6.41	5.19
-3.36	3.05
7.02	-4.88
28.38	-21.97
67.14	-47
130.31	-73.55
221.56	-92.77
335.39	-97.96
457.46	-86.06
567.93	-55.85
643.01	-1.53
653.99	87.89
572.81	222.47
387.27	408.33
111.39	639.34
-206.6	896.61
-498.05	1146.24
-782.47	1435.85(R)
-733.64	1383.67
-579.22	1182.56
-369.26	874.02
-166.93	534.36
-27.47	243.84
25.94	50.35
11.6	-45.47
-27.16	-75.99
-52.8	-80.57
-52.49	-83.31
-36.93	-89.72
-21.97	-95.83
-16.48	-98.57
-18.31	-98.27
-22.28	-96.74
-24.11	-95.21
-22.89	-93.69
-20.14	-92.47
-17.4	-91.55
-15.26	-90.64
-14.04	-89.72
-12.51	-88.2
-10.99	-86.06
-9.46	-83.31
-8.85	-80.57
-9.46	-78.43
-10.99	-77.51
-12.82	-78.74
-14.34	-81.48
-14.04	-85.14
-12.21	-88.5
-9.77	-90.64
-7.63	-91.55
-7.02	-91.86
-7.32	-92.16
-7.63	-92.77
-7.32	-93.38
-6.1	-94.3
-5.19	-95.21
-5.49	-96.74
-6.41	-97.66
-7.63	-97.05
-7.63	-95.21
-6.71	-92.16
-5.19	-89.42
-4.58	-87.59
-5.19	-86.67
-6.41	-86.36
-7.32	-85.75
-7.63	-85.14
-7.32	-84.23
-7.32	-82.4
-8.24	-79.96
-10.07	-76.29
-11.9	-71.72
-12.82	-67.14
-12.51	-62.56
-11.6	-57.98
-10.68	-52.8
-10.99	-47.3
-12.82	-42.42
-14.95	-38.45
-17.7	-35.71
-19.84	-33.87
-21.67	-31.43
-23.5	-28.08
-25.02	-23.8
-26.55	-19.23
-27.47	-15.87
-27.77	-12.82
-27.77	-10.07
-27.16	-6.41
-24.72	-1.53
-21.36	3.05
-18.01	6.41
-15.26	7.93
-14.04	8.24
-12.82	8.54
-11.29	9.77
-8.24	11.29
-4.88	12.82
-2.14	12.82
-0.61	11.6
0.61	9.77
1.53	8.24
2.14	7.32
3.05	7.02
3.36	7.02
3.66	6.71
3.36	5.49
2.75	3.05
0.92	0
-1.22	-3.66
-3.05	-6.41
-3.97	-8.24
-3.05	-8.85
-0.92	-9.46
1.22	-10.99
2.44	-13.73
1.83	-17.4
0.61	-21.36
-0.61	-24.11
-1.22	-25.63
-1.53	-26.25
-1.53	-26.86
-1.22	-28.08
-0.61	-29.6
0	-30.52
0.31	-30.52
0.31	-29.91
0.61	-30.21
0.61	-31.74
0.61	-35.1
0	-38.45
-0.31	-41.2
-0.61	-42.11
-0.31	-41.5
0.31	-39.98
0.92	-38.15
0.92	-37.23
-0.31	-37.54
-1.22	-37.84
-1.22	-37.23
0.31	-34.48
2.14	-30.21
2.44	-26.55
0.31	-25.33
-2.75	-27.16
-3.97	-29.91
-3.05	-31.43
-0.61	-31.13
0.31	-29.3
-1.22	-27.77
-3.97	-27.77
-6.71	-28.38
-7.02	-28.69
-5.8	-27.77
-3.05	-26.25
-0.31	-24.72
1.22	-24.72
1.22	-26.55
-0.31	-28.69
-2.44	-30.52
-3.97	-30.82
-4.27	-29.91
-3.66	-28.38
-2.75	-27.47
-2.44	-27.16
-3.36	-27.47
-4.58	-27.77
-5.19	-27.77
-4.27	-26.55
-2.44	-25.02
-0.92	-23.8
-0.92	-23.8
-2.14	-24.11
-3.66	-24.11
-4.88	-23.19
-4.88	-21.67
-4.88	-21.36
-5.49	-23.19
-7.02	-26.55
-8.24	-30.52
-7.93	-32.65
-6.41	-32.35
-3.97	-28.69
-1.53	-23.5
-0.31	-17.4
-0.31	-12.21
-1.83	-7.02
-4.58	-1.83
-7.02	4.27
-6.71	11.29
-3.36	18.92
3.05	26.25
9.46	32.96
13.12	38.76
12.21	42.11
7.02	42.42
1.22	39.06
-1.53	34.18
0.92	30.82
7.63	31.43
14.95	36.93
19.53	45.78
19.84	55.54
16.78	63.78
13.12	68.66
10.38	68.36
8.54	60.73
7.02	46.39
6.71	27.77
8.54	10.99
12.21	-0.31
14.04	-5.49
10.99	-7.93
1.83	-11.9
-10.38	-18.31
-20.14	-23.8
-23.8	-23.8
-21.67	-17.7
-18.31	-9.46
-17.09	-2.75
-18.62	-0.31
-20.14	-1.22
-19.23	-2.44
-16.48	-2.44
-13.73	-1.53
-13.12	-0.31
-14.95	-0.61
-18.31	-2.14
-19.84	-4.88
-17.7	-10.38
-8.85	-20.75
11.6	-38.15
51.57	-61.34
118.71	-85.14
215.15	-102.54
332.95	-106.51
455.02	-94.91
562.44	-65
635.07	-7.63
646.06	88.2
565.8	232.85
377.5	428.47
92.77	666.81
-237.12	926.51
-537.11	1175.23
-819.7	1462.10(R)
-765.99	1409.61
-608.83	1209.41
-396.42	900.57
-190.12	557.56
-45.47	259.09
12.21	55.24
-0.61	-48.22
-39.37	-79.96
-63.17	-79.04
-58.9	-75.38
-39.37	-79.96
-23.5	-91.25
-19.53	-100.71
-23.5	-103.76
-28.08	-101.01
-28.38	-96.13
-25.63	-93.99
-21.67	-95.52
-18.92	-99.79
-18.31	-103.76
-18.62	-105.59
-19.23	-105.29
-18.92	-103.76
-17.4	-103.45
-15.26	-105.59
-13.12	-109.56
-12.21	-114.14
-12.51	-117.8
-12.82	-119.32
-12.21	-119.63
-10.68	-119.63
-8.24	-119.02
-5.8	-117.49
-4.88	-115.05
-5.19	-113.22
-6.41	-112.92
-7.93	-114.44
-8.85	-115.66
-9.46	-116.27
-9.16	-116.58
-8.54	-117.8
-7.93	-120.85
-7.32	-124.21
-7.02	-125.12
-6.71	-123.6
-6.1	-121.77
-4.88	-122.07
-3.97	-126.04
-3.66	-130.92
-3.97	-133.06
-4.88	-130
-6.41	-124.21
-8.24	-119.93
-9.77	-119.93
-10.38	-123.9
-10.38	-126.95
-9.46	-125.43
-8.24	-119.32
-7.93	-111.39
-8.85	-105.59
-11.6	-102.54
-15.26	-101.01
-18.92	-98.88
-21.97	-95.52
-23.5	-91.25
-23.5	-86.06
-22.28	-80.26
-20.14	-74.46
-18.62	-70.8
-18.92	-69.89
-20.14	-70.8
-21.36	-69.27
-20.14	-63.17
-16.48	-53.41
-11.6	-44.86
-7.63	-41.5
-5.8	-43.33
-5.19	-46.08
-3.66	-45.17
-0.61	-38.45
3.36	-28.69
7.32	-19.23
9.46	-14.04
10.38	-14.04
8.85	-17.7
5.8	-22.58
2.14	-25.33
-0.31	-23.5
0	-18.01
2.44	-12.21
4.88	-9.77
6.1	-12.21
5.49	-17.7
4.88	-21.67
3.97	-22.28
2.14	-21.36
-0.92	-22.28
-4.27	-25.63
-5.8	-28.69
-4.58	-28.38
-0.61	-24.41
3.36	-20.45
4.88	-20.45
3.97	-23.8
1.53	-27.47
0	-28.08
0.92	-25.63
3.97	-22.28
6.41	-20.45
5.8	-20.14
2.44	-20.14
-1.22	-20.75
-3.05	-21.06
-2.14	-21.36
0.92	-20.75
3.05	-18.92
3.66	-17.4
2.75	-18.62
1.83	-23.5
1.53	-30.52
2.44	-34.79
3.97	-33.57
5.19	-28.08
3.97	-22.58
1.22	-21.06
-2.14	-24.41
-4.27	-30.52
-4.88	-35.71
-3.97	-36.93
-2.14	-33.87
0	-28.38
2.44	-21.97
4.27	-18.01
5.19	-16.48
4.88	-16.78
3.66	-17.4
1.53	-17.4
-0.61	-17.7
-3.05	-20.45
-4.27	-26.25
-3.36	-32.04
-0.92	-34.48
1.53	-32.04
2.75	-26.55
3.05	-21.67
3.05	-20.45
3.36	-22.28
3.05	-26.25
2.44	-30.21
1.83	-32.04
1.53	-31.43
2.14	-27.77
3.36	-22.58
4.27	-17.4
4.88	-14.34
5.19	-14.04
5.8	-16.17
5.49	-19.53
4.58	-21.97
3.36	-22.28
1.83	-21.06
0.92	-20.14
1.53	-19.84
3.05	-21.06
4.88	-23.19
6.41	-25.63
6.41	-28.99
4.27	-31.13
2.14	-29.3
1.83	-22.89
4.27	-13.73
8.54	-7.32
11.6	-6.1
12.82	-8.85
12.82	-10.07
13.12	-5.19
15.56	6.1
17.7	19.53
16.17	29.3
9.77	31.13
2.44	26.55
-0.31	20.45
5.19	18.62
16.48	23.19
26.25	32.04
29.6	40.28
26.25	46.08
19.84	50.05
14.34	51.88
11.29	49.74
9.46	41.5
8.54	27.47
8.54	11.6
11.6	-0.92
16.17	-8.54
18.31	-14.34
14.04	-22.58
2.44	-35.4
-12.21	-49.74
-22.89	-59.51
-23.8	-60.73
-17.09	-54.93
-9.16	-47
-6.1	-41.81
-9.77	-41.5
-15.87	-44.86
-19.53	-48.22
-18.62	-50.35
-15.26	-51.27
-12.21	-51.57
-11.6	-51.27
-13.12	-51.57
-14.34	-54.02
-11.6	-60.73
-0.61	-74.16
24.41	-94.91
70.8	-120.54
143.43	-145.87
241.39	-164.18
354.61	-167.85
466.92	-151.98
560.3	-111.08
614.01	-37.23
599.67	78.43
487.98	242.31
268.55	454.41
-35.71	704.35
-364.07	971.07
-806.27	1403.81
-842.29	1471.86(R)
-757.45	1385.8
-584.41	1147.16
-369.87	805.97
-169.68	444.95
-32.65	147.71
21.67	-39.67
11.29	-121.46
-22.89	-135.19
-44.25	-124.82
-41.2	-116.88
-24.11	-119.02
-9.46	-125.73
-4.58	-130.62
-7.32	-132.45
-11.6	-132.75
-13.43	-133.36
-12.51	-133.97
-10.38	-134.28
-8.54	-133.06
-7.02	-130.62
-5.19	-127.87
-3.05	-126.65
-1.22	-126.95
0	-127.26
0	-126.04
-0.61	-123.6
-1.83	-121.77
-3.66	-122.99
-4.88	-126.65
-4.88	-130.92
-3.05	-132.45
-0.92	-130.62
0	-127.56
-0.31	-126.34
-2.44	-128.17
-4.27	-131.53
-4.88	-133.06
-3.97	-132.14
-2.75	-129.39
-1.53	-126.65
-0.92	-125.73
-0.92	-126.95
-1.22	-128.78
-1.83	-130
-1.53	-129.7
-0.61	-128.17
0.61	-126.34
2.14	-124.21
2.44	-122.07
2.44	-119.32
1.83	-115.97
1.53	-112.61
1.53	-109.56
1.22	-106.51
0	-104.06
-1.53	-102.23
-3.05	-100.4
-3.36	-98.57
-3.36	-95.83
-3.66	-92.47
-4.27	-88.5
-4.88	-84.84
-4.58	-81.48
-3.97	-79.04
-3.66	-77.51
-4.88	-76.6
-7.93	-75.38
-10.99	-72.94
-12.51	-68.36
-12.21	-61.95
-10.38	-54.93
-8.24	-48.52
-6.41	-43.33
-4.88	-38.76
-3.05	-34.48
-0.31	-29.6
4.27	-24.41
8.85	-19.53
12.82	-15.87
14.34	-13.12
13.73	-10.68
12.82	-7.63
12.51	-3.66
13.43	0
14.04	1.22
13.73	0
12.82	-2.44
12.51	-3.36
13.73	-2.14
15.26	0.61
15.87	2.75
15.26	2.14
14.34	0
14.04	-2.44
14.04	-3.05
13.43	-2.44
11.9	-1.53
9.77	-1.83
8.54	-3.36
9.16	-4.58
10.99	-4.88
13.43	-3.97
14.95	-3.05
14.65	-2.44
13.43	-2.44
12.21	-2.75
12.21	-3.36
13.12	-3.97
13.73	-5.19
13.73	-6.41
12.82	-7.93
11.6	-9.46
10.99	-11.6
11.6	-13.73
12.82	-15.26
13.73	-16.48
13.73	-17.4
12.51	-18.62
10.68	-20.75
9.77	-22.89
9.77	-24.41
10.68	-24.72
11.6	-23.5
11.9	-21.67
11.29	-19.84
10.07	-18.62
8.85	-18.31
7.93	-19.23
7.63	-20.14
7.93	-20.14
8.54	-18.62
9.16	-15.87
9.46	-12.21
9.46	-9.46
9.77	-7.93
9.77	-7.63
9.77	-8.24
9.77	-9.46
9.16	-11.29
8.24	-13.73
7.32	-16.48
7.02	-19.23
7.32	-20.75
7.93	-20.75
8.24	-19.23
7.63	-16.78
6.1	-14.95
4.27	-14.34
3.36	-14.65
3.36	-15.26
4.27	-15.87
4.58	-16.48
4.58	-16.78
4.27	-17.4
3.97	-17.4
4.27	-16.48
4.58	-14.34
4.58	-11.9
4.27	-9.77
3.36	-8.24
3.05	-7.32
3.05	-6.41
3.36	-5.19
3.66	-3.36
3.97	-1.83
3.66	0
3.66	2.14
3.66	4.27
3.36	7.02
3.05	10.38
2.44	14.95
2.14	21.36
2.75	29.3
5.49	37.23
10.07	45.17
15.26	52.8
18.62	60.73
18.31	67.75
13.73	72.02
6.71	71.11
1.22	65.92
0.61	59.51
5.49	56.46
13.12	59.2
19.23	66.53
20.75	75.38
18.62	83.31
14.95	89.11
13.43	91.25
14.65	88.5
16.48	79.04
17.4	62.56
17.09	42.72
17.09	25.33
18.01	14.65
17.7	9.77
13.12	7.32
3.36	3.36
-9.16	-1.83
-18.62	-5.19
-21.06	-3.66
-18.01	1.53
-14.04	6.1
-13.12	7.63
-14.65	5.49
-16.78	2.44
-17.09	0.61
-15.56	0.61
-14.34	0.92
-14.34	1.22
-14.95	1.22
-15.26	1.53
-14.34	1.22
-9.77	-2.44
0.92	-13.43
24.11	-32.96
67.44	-57.98
138.24	-81.18
235.9	-95.83
351.87	-96.13
469.97	-80.87
571.29	-46.08
633.24	16.48
625.92	117.49
523.07	265.5
315.86	462.04
26.25	697.94
-289	951.54
-560	1189.27
-777.89	1423.03(R)
-699.16	1331.79
-526.73	1097.41
-315.55	773.32
-128.17	442.2
-14.04	179.75
15.56	20.75
-11.6	-46.39
-50.05	-60.12
-67.44	-57.07
-59.81	-57.07
-41.81	-61.34
-29.6	-65.92
-28.08	-67.75
-32.35	-67.44
-35.71	-67.44
-34.79	-68.36
-29.91	-70.5
-25.02	-72.63
-22.89	-73.85
-23.8	-74.77
-25.94	-75.38
-27.16	-76.6
-26.55	-78.43
-25.33	-79.35
-23.8	-79.04
-22.89	-77.82
-22.89	-76.6
-23.19	-76.9
-23.8	-78.43
-23.8	-79.65
-23.5	-80.26
-22.89	-79.35
-22.28	-78.13
-21.97	-76.9
-21.67	-76.9
-21.36	-79.04
-21.36	-81.79
-21.67	-84.53
-21.97	-86.36
-21.67	-86.67
-21.06	-86.36
-19.53	-85.75
-18.01	-84.53
-17.09	-83.01
-17.09	-80.87
-17.4	-78.74
-17.7	-76.29
-17.4	-74.46
-16.48	-72.63
-15.26	-71.72
-15.56	-71.72
-17.4	-72.33
-20.14	-72.33
-21.97	-70.5
-21.67	-67.44
-20.75	-64.39
-20.45	-62.56
-21.97	-62.26
-25.33	-61.65
-28.38	-59.51
-30.52	-55.54
-31.13	-50.66
-32.35	-46.39
-34.48	-43.33
-36.93	-42.11
-38.76	-41.2
-39.06	-39.37
-37.84	-36.01
-36.32	-31.13
-36.01	-25.63
-36.93	-20.45
-38.76	-17.09
-39.67	-14.95
-38.45	-13.43
-35.4	-11.29
-30.52	-7.63
-25.63	-3.36
-21.06	0.92
-17.7	3.05
-15.56	3.05
-14.65	1.22
-14.65	-1.53
-14.95	-3.66
-14.34	-5.19
-13.12	-5.8
-11.29	-6.1
-10.07	-6.1
-9.46	-6.41
-9.77	-7.02
-9.46	-7.63
-8.85	-8.85
-7.93	-10.38
-7.63	-12.51
-7.93	-14.65
-8.54	-16.78
-8.54	-19.23
-8.24	-21.97
-7.93	-25.33
-8.54	-29.3
-10.07	-32.65
-11.6	-35.1
-12.51	-36.62
-11.9	-37.54
-10.38	-38.45
-8.85	-39.67
-7.93	-40.89
-8.24	-41.5
-9.16	-40.89
-9.77	-39.98
-10.07	-39.67
-10.07	-42.11
-10.07	-47.61
-9.46	-54.93
-8.85	-61.95
-7.63	-67.44
-6.41	-71.72
-5.49	-76.6
-4.58	-81.79
-3.97	-86.36
-3.97	-89.11
-4.58	-88.81
-6.41	-87.28
-8.85	-86.98
-10.68	-88.5
-10.99	-90.94
-9.46	-92.47
-7.32	-92.77
-5.8	-93.38
-6.1	-95.52
-7.63	-99.49
-8.85	-103.45
-9.16	-105.9
-7.63	-105.9
-5.49	-104.06
-4.27	-101.01
-4.58	-98.27
-5.8	-96.74
-7.32	-97.96
-8.54	-101.93
-9.16	-106.51
-8.85	-109.56
-7.93	-108.64
-7.02	-104.37
-6.1	-100.1
-6.41	-98.57
-7.02	-100.71
-7.02	-103.76
-5.8	-105.59
-3.97	-104.98
-2.75	-104.37
-3.36	-105.59
-5.19	-109.56
-7.02	-113.53
-7.63	-114.44
-7.63	-112.3
-7.63	-110.78
-8.24	-113.53
-8.85	-120.54
-8.85	-127.87
-7.93	-130
-6.71	-125.12
-6.1	-116.88
-6.41	-110.78
-7.02	-110.47
-7.02	-113.53
-5.49	-114.75
-3.05	-111.69
-0.61	-105.59
1.22	-98.88
1.83	-93.69
1.22	-88.5
1.53	-81.79
4.58	-71.72
10.38	-59.81
17.4	-47.91
22.58	-39.06
22.28	-36.32
16.17	-40.59
6.71	-50.66
-0.61	-61.95
-1.22	-67.75
5.49	-64.09
16.17	-52.8
25.02	-39.67
27.47	-30.82
23.5	-28.38
16.48	-30.21
11.29	-35.71
9.16	-46.08
8.85	-62.56
8.85	-83.62
9.16	-102.23
10.38	-112.61
11.29	-115.66
8.54	-118.41
0	-126.04
-12.51	-138.85
-22.89	-149.23
-25.33	-151.06
-20.75	-145.26
-14.34	-136.41
-12.21	-129.7
-15.56	-126.34
-21.06	-124.51
-24.41	-124.21
-24.11	-126.65
-21.36	-132.75
-18.01	-140.08
-16.48	-145.26
-16.17	-145.57
-14.95	-144.35
-10.38	-148.01
1.53	-163.27
27.47	-190.73
75.68	-223.08
152.89	-250.24
258.48	-263.67
381.16	-260.31
502.32	-241.39
601.2	-203.86
653.99	-136.11
629.58	-24.11
502.01	140.99
264.59	357.36
-54.63	610.35
-390.32	874.02
-825.81	1288.15
-852.05	1343.69(R)
-754.09	1246.95
-567.02	1003.11
-343.63	664.06
-144.65	315.55
-18.62	36.93
20.45	-132.14
-1.22	-202.64
-38.45	-215.45
-56.76	-211.49
-50.05	-213.01
-32.65	-221.86
-19.84	-230.71
-16.78	-234.38
-20.14	-233.15
-23.19	-231.02
-23.8	-231.63
-21.67	-236.21
-18.62	-242.61
-15.87	-248.11
-14.65	-250.55
-14.34	-249.63
-14.65	-246.28
-15.26	-242.31
-15.87	-239.26
-15.56	-237.12
-13.73	-236.21
-10.68	-236.82
-7.93	-239.26
-7.02	-242
-8.24	-242.61
-10.38	-239.56
-11.29	-234.07
-10.38	-229.8
-7.93	-230.71
-6.1	-237.12
-6.1	-245.67
-8.24	-251.46
-11.29	-252.08
-12.82	-247.5
-11.29	-241.39
-6.41	-236.82
-1.22	-234.68
1.53	-234.38
0.31	-235.6
-3.97	-238.04
-8.54	-239.56
-10.68	-239.56
-9.77	-236.82
-8.24	-231.63
-7.93	-226.14
-9.46	-223.69
-11.29	-224.3
-11.29	-226.14
-9.46	-226.14
-7.02	-222.47
-5.8	-217.29
-7.32	-213.01
-10.07	-210.88
-12.51	-208.74
-13.12	-204.47
-13.12	-197.75
-12.82	-191.35
-13.43	-187.07
-14.34	-185.85
-14.95	-184.63
-13.73	-181.27
-11.9	-174.56
-10.99	-166.93
-11.9	-161.13
-15.26	-157.78
-18.62	-154.72
-19.84	-151.06
-17.09	-144.65
-11.29	-137.33
-5.19	-131.84
0.31	-128.17
4.88	-125.73
7.63	-123.29
8.54	-120.24
7.93	-116.58
6.71	-112.61
6.1	-108.34
7.02	-104.68
8.24	-102.54
8.85	-103.45
8.85	-105.9
8.85	-107.42
9.46	-106.2
10.38	-102.84
10.07	-101.01
8.24	-104.06
5.49	-112.3
3.05	-121.46
3.05	-125.43
4.88	-122.07
7.93	-114.44
9.77	-108.03
9.46	-107.73
6.1	-113.53
1.83	-120.24
-0.61	-123.9
0.31	-123.6
3.97	-120.54
8.24	-116.88
10.38	-114.44
10.07	-114.44
8.24	-115.97
7.02	-118.41
5.8	-119.93
3.66	-119.93
0.92	-118.71
-0.31	-117.8
1.83	-118.41
7.02	-119.63
12.21	-120.54
13.73	-121.15
10.99	-121.15
6.41	-121.77
2.75	-123.6
1.83	-127.56
2.14	-132.14
2.75	-136.72
2.75	-138.85
3.36	-137.02
4.58	-132.45
5.49	-126.95
6.1	-122.07
5.8	-118.71
5.49	-116.88
6.1	-116.58
7.02	-117.8
7.93	-119.63
8.24	-121.15
8.24	-120.24
7.93	-116.88
6.71	-113.22
5.19	-111.69
3.05	-112.92
1.83	-115.36
1.53	-116.27
3.05	-113.83
4.88	-108.64
7.02	-103.15
8.54	-99.79
9.46	-98.57
9.16	-98.88
8.54	-99.49
8.24	-99.18
8.24	-97.66
8.54	-94.6
8.54	-90.94
8.54	-87.59
8.54	-85.75
8.85	-84.84
9.16	-83.62
8.85	-81.79
8.24	-79.96
8.24	-79.35
8.85	-80.87
9.77	-83.01
10.68	-83.01
10.38	-79.96
9.46	-75.38
8.54	-71.11
8.24	-68.05
8.54	-66.22
9.46	-65.31
10.07	-64.39
10.99	-62.87
11.9	-59.81
13.12	-55.24
14.65	-49.74
16.48	-44.86
18.92	-41.5
21.97	-37.23
25.63	-30.52
28.99	-20.75
30.21	-10.99
27.77	-5.49
22.58	-5.8
17.7	-9.77
16.78	-13.12
21.67	-13.12
30.52	-9.46
38.45	-3.97
40.89	1.53
37.54	6.71
31.74	11.9
27.47	15.56
26.86	14.95
28.08	7.02
28.69	-9.77
27.47	-30.82
26.25	-49.13
26.25	-59.81
25.94	-63.17
22.58	-64.09
14.65	-67.14
4.88	-72.33
-2.75	-76.6
-3.97	-77.21
-0.61	-75.07
3.36	-72.94
5.19	-72.02
3.97	-72.02
1.53	-70.19
0.31	-66.22
0.61	-61.04
2.44	-57.07
4.58	-56.15
5.8	-58.29
6.71	-61.95
7.93	-65.92
13.12	-71.72
27.16	-83.31
56.15	-104.06
107.42	-132.14
184.63	-159.61
286.25	-175.78
401.61	-171.81
513.92	-144.96
603.33	-93.08
645.14	-10.99
608.52	108.95
470.28	276.18
229.8	491.64
-79.96	744.63
-394.29	1007.69
-778.2	1389.77
-782.78	1405.64(R)
-669.25	1264.65
-475.77	988.77
-260.01	642.4
-82.4	312.19
15.56	67.14
31.74	-69.58
0.92	-119.02
-33.26	-123.29
-43.95	-119.32
-32.96	-122.68
-16.17	-132.45
-6.71	-141.3
-6.41	-144.65
-10.07	-144.35
-12.82	-142.82
-12.51	-142.82
-10.99	-144.35
-9.16	-145.57
-7.93	-145.26
-7.32	-142.82
-7.93	-139.77
-9.16	-137.94
-10.68	-136.72
-10.99	-134.58
-9.46	-130.92
-6.1	-125.73
-3.36	-121.77
-2.75	-120.54
-4.27	-121.46
-6.1	-122.68
-6.71	-122.38
-5.8	-119.93
-3.97	-116.88
-3.05	-114.75
-2.14	-113.83
-1.83	-114.44
-1.83	-115.97
-2.14	-117.49
-2.75	-119.02
-3.97	-120.24
-4.58	-120.54
-4.88	-120.24
-4.88	-120.24
-3.66	-119.93
-1.83	-120.24
0	-120.54
0.61	-120.24
-1.53	-119.63
-4.88	-119.02
-7.63	-118.41
-8.54	-118.41
-7.63	-118.1
-5.8	-117.49
-5.19	-116.27
-5.8	-114.44
-7.02	-112.61
-7.93	-110.78
-9.46	-108.64
-10.99	-105.9
-12.82	-102.54
-14.34	-98.88
-14.65	-94.6
-14.34	-90.03
-14.04	-84.84
-14.95	-79.96
-17.09	-76.6
-19.84	-74.46
-21.36	-72.94
-21.67	-70.8
-20.75	-67.14
-19.23	-62.26
-18.01	-57.37
-16.78	-53.1
-15.56	-49.13
-13.43	-45.78
-10.68	-42.72
-7.93	-40.28
-5.8	-38.15
-4.27	-35.71
-2.44	-32.96
-0.31	-30.21
2.14	-27.77
3.66	-26.25
4.88	-25.33
5.8	-25.02
7.02	-24.41
7.63	-24.11
7.32	-24.11
6.1	-24.72
4.58	-25.94
4.27	-27.47
4.58	-29.3
5.19	-31.43
5.19	-33.57
4.27	-34.79
3.36	-34.48
3.05	-32.96
3.05	-31.74
3.36	-32.35
3.05	-35.4
3.05	-39.06
2.75	-41.5
3.05	-41.5
3.05	-39.67
2.75	-37.84
2.14	-36.93
1.83	-36.62
2.14	-35.71
3.05	-35.1
4.27	-35.4
5.49	-37.54
6.1	-40.89
6.41	-42.72
6.71	-43.33
6.71	-43.03
6.41	-43.64
5.49	-44.86
4.58	-46.39
4.58	-47
5.19	-46.69
6.41	-45.78
7.32	-45.17
7.02	-44.56
5.8	-44.86
4.27	-46.39
3.36	-48.22
2.75	-50.05
3.05	-50.35
3.97	-48.83
4.58	-45.78
4.88	-42.11
3.97	-39.37
2.75	-37.84
1.53	-37.23
1.22	-36.93
1.83	-36.93
2.44	-37.54
2.44	-37.84
2.14	-37.84
1.83	-36.01
1.53	-32.35
1.22	-28.08
0.61	-24.72
0.92	-22.58
2.14	-21.06
4.27	-19.23
6.1	-16.78
6.41	-14.04
4.58	-12.21
1.83	-11.29
-0.31	-10.99
-0.61	-10.68
0	-10.07
0.61	-8.54
1.22	-6.71
0.92	-4.58
0.31	-2.75
-0.31	-0.92
-0.92	0.31
-1.53	1.22
-1.22	2.44
-0.61	3.36
0	3.66
0	3.36
-0.61	2.14
-1.22	1.83
-0.61	3.05
0.92	6.71
3.05	12.82
4.58	19.84
5.8	26.86
8.24	33.57
11.9	39.98
16.48	46.69
19.84	54.32
20.14	61.65
16.48	65.92
10.07	65.31
4.27	59.81
	
