-37.23	-73.85
-17.7	-48.52
16.48	-2.75
66.53	63.17
132.45	144.65
209.05	234.68
284.73	329.9
345.76	426.64
387.27	511.78
422.36	563.66
477.29	564.58
572.51	517.58
700.99	454.1
824.28	413.21
888.98	404.05
854.8	389.4
717.77	307.92
512.39	123.9
286.56	-131.23
87.28	-371.4
-55.54	-509.64
-136.41	-509.03
-164.49	-404.05
-157.78	-271.91
-137.94	-181.27
-122.07	-151.98
-117.8	-161.74
-122.38	-174.26
-127.26	-169.37
-127.26	-148.93
-122.68	-129.09
-118.41	-120.54
-118.71	-123.6
-122.68	-130
-125.12	-132.45
-121.46	-126.95
-113.53	-116.88
-105.9	-108.64
-103.76	-107.42
-108.34	-112.92
-115.36	-118.1
-118.1	-115.97
-112.92	-105.9
-102.84	-95.52
-94.3	-91.86
-92.47	-97.66
-97.05	-107.12
-102.23	-111.39
-102.23	-105.29
-96.74	-92.47
-91.25	-79.96
-89.42	-73.55
-92.16	-74.16
-95.52	-77.82
-96.44	-79.04
-95.21	-76.29
-93.69	-71.11
-93.99	-64.7
-94.91	-58.59
-95.52	-54.02
-96.44	-52.49
-97.35	-54.63
-97.05	-58.59
-94.91	-60.12
-90.94	-56.76
-87.59	-48.52
-87.89	-40.28
-92.47	-37.84
-98.57	-41.2
-101.93	-45.78
-101.93	-46.08
-99.18	-39.98
-95.52	-28.38
-92.16	-18.31
-88.81	-13.43
-86.06	-14.65
-86.98	-19.23
-93.69	-22.58
-104.98	-23.5
-115.97	-22.89
-121.46	-23.8
-120.54	-26.25
-116.27	-28.38
-114.44	-24.72
-117.49	-14.34
-124.82	-2.14
-133.97	4.88
-141.3	2.75
-145.57	-6.1
-148.01	-16.78
-151.98	-25.63
-157.78	-30.52
-163.57	-29.6
-167.54	-22.58
-167.85	-11.29
-165.41	-0.61
-162.35	3.05
-159	-0.31
-152.89	-3.36
-143.13	0.31
-130.62	10.07
-118.41	18.31
-108.64	18.31
-101.01	11.29
-93.38	3.66
-83.01	2.75
-70.19	8.24
-55.85	15.56
-41.2	21.97
-26.25	28.99
-11.9	39.37
0	52.49
4.58	60.73
-2.75	54.93
-18.01	36.01
-29.91	13.43
-29.3	0
-15.26	1.83
3.05	14.04
14.95	27.47
16.17	34.48
10.38	32.65
5.19	25.94
3.36	19.84
1.22	15.56
-5.49	13.73
-14.95	13.43
-21.06	14.04
-17.4	16.78
-2.75	22.89
14.65	28.08
21.36	26.55
12.51	17.09
-4.88	6.41
-15.56	3.66
-10.07	13.43
6.71	28.99
20.14	36.62
19.23	32.35
6.41	24.41
-7.02	21.06
-12.51	21.06
-11.29	14.65
-10.07	-1.22
-12.82	-17.4
-15.87	-18.62
-13.43	-1.22
-4.58	20.75
5.8	30.21
10.68	22.89
9.16	10.68
4.27	8.54
0	18.92
-2.75	31.43
-5.19	33.57
-8.54	24.11
-11.9	11.9
-12.82	7.63
-10.38	14.34
-7.63	24.11
-7.63	28.99
-10.68	27.47
-14.65	24.72
-16.48	25.33
-15.87	28.38
-15.26	27.77
-16.48	20.14
-18.31	10.68
-17.4	8.85
-13.12	18.01
-5.8	33.26
1.22	45.47
6.41	51.27
8.85	52.8
9.16	51.88
7.63	49.13
3.97	44.56
0.61	39.98
0.61	40.89
6.1	51.57
17.7	74.77
32.96	111.08
47.91	156.86
56.15	202.33
55.54	232.24
48.22	235.9
42.11	217.59
45.47	193.79
58.9	180.36
76.6	182.19
86.98	189.82
83.31	191.35
68.66	180.66
51.27	160.52
41.81	138.24
44.86	121.77
58.29	115.66
74.46	119.93
82.09	125.43
71.41	119.02
42.72	94.91
5.8	59.2
-25.02	27.16
-37.54	11.9
-31.13	12.51
-16.48	18.92
-6.71	18.62
-7.63	9.16
-16.17	-2.75
-23.8	-7.93
-25.02	-4.58
-18.31	3.97
-8.54	10.99
-2.75	11.29
-3.97	5.8
-10.68	1.22
-17.4	2.44
-20.45	7.93
-20.14	11.29
-19.84	7.02
-22.58	-5.49
-27.47	-17.4
-30.52	-18.92
-29.3	-9.77
-25.33	0.61
-21.67	2.44
-19.53	-5.49
-17.4	-13.73
-11.6	-8.24
1.83	18.92
29.3	64.39
75.68	119.32
142.52	179.14
224	245.36
306.7	323.49
376.89	419.92
429.69	531.62
472.41	636.6
523.68	704.04
600.28	715.33
704.35	680.24
815.12	635.99
895.39	612.79
904.24(R)	599.98
819.09	548.4
650.33	406.19
435.18	171.51
218.81	-93.69
38.45	-302.73
-88.81	-396.42
-162.96	-374.45
-191.65	-285.95
-184.02	-192.87
-154.72	-130.62
-120.54	-101.32
-96.13	-87.59
-88.5	-73.85
-94.91	-57.07
-106.81	-43.03
-114.14	-36.62
-112.61	-36.01
-103.45	-35.4
-92.77	-32.96
-87.89	-31.43
-92.16	-34.79
-104.06	-41.81
-116.27	-48.22
-119.93	-47.91
-110.78	-39.37
-92.16	-26.25
-72.94	-14.65
-63.17	-9.46
-67.14	-11.9
-80.26	-18.01
-94.91	-24.11
-103.76	-26.86
-104.37	-26.25
-98.88	-24.11
-90.94	-21.67
-84.53	-19.23
-81.18	-14.95
-80.57	-8.24
-80.57	-0.61
-79.65	6.1
-77.51	9.77
-75.38	9.77
-75.07	8.24
-77.21	7.32
-79.65	9.16
-79.65	13.73
-76.9	20.45
-72.94	27.16
-71.11	31.43
-72.63	30.82
-75.38	27.16
-74.46	25.63
-68.36	29.3
-60.73	36.32
-57.98	41.81
-64.09	40.59
-76.6	32.65
-89.42	22.58
-96.44	18.62
-96.13	24.72
-90.64	39.06
-84.53	56.15
-79.96	68.66
-79.04	72.02
-82.09	66.83
-87.89	59.51
-93.38	56.76
-97.96	61.04
-101.32	69.58
-104.06	78.13
-107.12	84.53
-110.17	89.42
-112.92	95.21
-116.27	102.54
-121.77	108.34
-129.7	110.47
-136.11	110.17
-137.94	111.08
-133.06	115.66
-122.99	122.68
-112.3	129.7
-104.68	133.67
-100.71	134.28
-97.05	135.5
-90.64	138.55
-79.96	142.82
-66.83	144.65
-53.1	142.52
-39.06	138.24
-24.41	134.89
-8.24	134.89
7.63	136.72
17.7	134.28
18.92	124.21
12.51	107.12
3.36	88.81
-3.05	74.77
-2.44	69.58
5.49	72.63
18.01	79.65
28.99	84.53
32.35	83.01
26.86	74.16
15.56	61.95
4.58	52.49
-0.61	49.13
-0.92	50.66
-0.61	51.27
-2.44	47.91
-4.27	42.42
-3.66	39.37
0.61	40.89
7.93	47
14.34	52.19
17.09	52.19
16.17	48.22
11.9	42.42
5.49	37.54
-1.22	34.79
-3.36	35.1
1.22	37.84
11.29	42.72
20.75	46.69
22.28	45.47
13.43	38.15
-0.31	27.77
-11.6	18.92
-16.78	14.95
-15.87	17.4
-13.73	23.5
-12.51	30.52
-10.99	34.48
-7.63	33.87
-3.66	28.69
-0.61	23.19
0	21.36
-0.92	23.5
-1.53	27.77
-1.83	30.21
-3.36	29.91
-7.02	27.47
-12.21	24.11
-16.17	21.06
-16.17	18.92
-13.73	18.92
-12.51	19.84
-14.34	23.19
-16.78	28.69
-16.17	34.48
-9.77	39.67
0.31	42.42
8.54	41.5
11.29	38.45
8.85	34.18
2.75	28.38
-7.02	20.45
-17.7	11.29
-25.94	5.8
-27.47	7.02
-19.23	17.09
-4.88	31.43
7.63	43.03
12.51	47.61
10.99	45.47
7.32	40.89
5.8	37.54
5.19	36.01
0.31	32.65
-9.77	26.25
-16.78	24.72
-11.6	39.98
7.93	77.51
34.18	131.53
53.71	182.8
58.29	212.71
52.19	218.51
48.22	212.4
53.71	208.74
66.53	212.71
77.82	218.2
79.04	215.15
70.19	199.58
57.98	177.92
51.88	158.39
54.93	145.26
65	135.8
73.24	125.43
72.94	109.56
62.56	89.42
44.86	69.27
24.11	52.8
4.58	42.72
-9.77	38.45
-18.62	36.01
-22.28	31.13
-21.97	21.67
-21.36	7.93
-22.58	-7.93
-25.94	-21.67
-28.38	-29.3
-28.38	-28.99
-25.94	-24.11
-22.89	-19.53
-21.06	-19.84
-21.67	-25.94
-22.89	-33.57
-22.89	-36.62
-20.45	-31.74
-17.09	-22.89
-16.17	-15.87
-18.62	-16.17
-24.11	-22.28
-29.3	-29.6
-29.91	-32.96
-25.02	-32.35
-18.62	-31.13
-15.26	-32.96
-15.87	-35.1
-17.7	-30.52
-13.12	-12.82
6.41	23.8
45.78	79.96
103.76	150.45
175.48	228.88
249.63	309.45
315.25	390.63
366.52	473.63
409.55	547.79
461.12	590.82
538.64	585.02
648.19	535.58
771.48	476.68
871.89	444.34
908.81(R)	439.45
854.49	419.92
711.98	328.37
513	140.99
300.9	-102.84
115.66	-323.49
-21.36	-448.91
-107.73	-455.93
-151.37	-375.98
-163.57	-271
-155.94	-192.57
-141.3	-157.47
-128.78	-151.67
-121.15	-151.37
-117.19	-141.6
-115.66	-126.65
-117.19	-118.41
-123.29	-123.29
-131.53	-135.5
-137.02	-144.04
-134.58	-142.82
-126.34	-135.5
-116.58	-128.48
-110.47	-125.43
-108.34	-123.6
-105.9	-117.49
-101.93	-105.9
-97.96	-93.69
-97.05	-88.81
-99.79	-95.21
-104.37	-110.47
-108.03	-127.56
-108.64	-137.33
-106.2	-136.11
-103.45	-126.95
-101.32	-115.66
-100.71	-109.56
-101.93	-112.3
-104.68	-121.15
-107.12	-130.31
-105.9	-132.14
-98.88	-124.51
-87.59	-110.78
-77.51	-97.35
-74.77	-91.25
-82.4	-95.83
-96.13	-107.42
-108.03	-119.32
-110.78	-124.82
-103.76	-121.77
-92.77	-112
-83.62	-100.71
-79.04	-93.38
-80.26	-91.86
-85.14	-94.91
-91.86	-98.27
-97.66	-97.96
-101.32	-94.6
-101.93	-91.25
-101.62	-91.25
-103.76	-94.3
-108.03	-96.44
-110.78	-92.77
-109.25	-84.23
-103.76	-76.6
-97.66	-74.46
-94.3	-77.21
-97.05	-82.7
-104.68	-87.28
-114.75	-89.72
-125.73	-90.94
-136.72	-91.55
-146.18	-91.25
-154.42	-90.33
-158.69	-88.81
-159	-85.75
-156.25	-78.43
-150.15	-60.12
-138.55	-25.02
-118.71	27.47
-87.59	90.03
-49.74	147.09
-15.87	180.36
1.53	180.36
0	152.28
-13.73	113.22
-27.16	79.96
-30.52	61.34
-21.36	53.41
-5.49	47
11.29	36.01
25.94	21.06
37.84	5.19
45.78	-9.77
47.61	-25.02
42.72	-43.03
34.79	-62.56
29.6	-79.04
29.91	-90.33
32.96	-98.57
32.65	-108.03
27.77	-120.54
23.5	-131.53
25.02	-137.33
32.35	-136.41
39.67	-132.75
39.67	-133.67
31.13	-141.3
17.7	-154.42
3.66	-169.68
-7.63	-184.33
-14.34	-194.7
-13.12	-196.84
-1.53	-189.82
18.01	-176.09
36.32	-162.35
43.33	-154.72
34.79	-154.11
15.56	-158.69
-2.44	-165.1
-10.07	-171.51
-7.63	-178.22
-3.97	-187.99
-9.16	-203.86
-22.58	-222.17
-35.71	-234.99
-37.54	-235.6
-23.8	-219.42
-1.83	-194.09
14.65	-173.65
17.7	-166.93
9.16	-172.73
-3.97	-183.72
-15.56	-192.26
-22.58	-195.01
-25.02	-192.57
-24.11	-187.99
-20.45	-184.33
-15.87	-182.19
-12.82	-182.8
-12.51	-185.24
-14.34	-188.6
-17.09	-191.65
-20.45	-195.62
-26.86	-202.64
-36.01	-213.32
-45.78	-223.08
-50.66	-225.52
-46.39	-215.45
-32.35	-193.48
-14.65	-168.76
0	-151.37
7.63	-146.79
8.85	-150.45
7.93	-155.03
7.02	-155.33
7.02	-153.2
6.71	-152.89
6.41	-155.94
6.1	-160.52
6.1	-163.27
5.49	-162.96
4.27	-160.83
1.53	-159.3
-5.8	-161.44
-19.53	-168.15
-33.87	-173.03
-36.01	-162.05
-15.87	-123.29
25.94	-57.07
71.72	16.48
97.66	67.75
93.08	79.96
69.58	60.73
49.74	34.48
48.52	21.67
64.09	25.63
81.48	33.87
86.98	31.43
76.6	10.99
57.07	-22.89
41.2	-57.37
38.76	-79.35
51.27	-83.92
69.27	-78.74
78.74	-77.51
70.19	-89.72
45.78	-112.61
16.48	-134.28
-5.19	-145.57
-16.78	-148.62
-20.75	-151.67
-21.06	-158.69
-19.53	-167.24
-17.7	-173.95
-17.7	-178.83
-19.84	-184.94
-22.89	-192.57
-24.41	-199.58
-23.8	-201.72
-22.89	-198.06
-24.41	-193.18
-28.38	-192.87
-33.87	-198.97
-38.76	-208.44
-42.42	-215.45
-43.95	-216.37
-41.5	-209.66
-35.4	-198.97
-27.47	-189.21
-20.75	-182.8
-19.23	-179.75
-22.28	-179.75
-28.08	-182.19
-33.57	-186.46
-37.23	-190.12
-35.71	-187.07
-24.72	-168.15
3.05	-126.34
54.02	-60.73
128.48	22.58
215.45	113.53
296.02	204.77
356.14	294.19
394.59	373.54
429.99	426.33
490.72	436.4
593.87	404.66
729.98	356.14
863.04	326.23
946.04(R)	324.71
938.42	320.43
827.64	257.26
635.99	95.83
406.19	-147.09
184.63	-401
7.63	-581.97
-109.56	-639.04
-172.12	-579.83
-190.43	-461.12
-178.22	-349.12
-151.98	-282.9
-127.56	-263.06
-113.22	-264.89
-112	-265.5
-119.93	-255.74
-128.48	-239.26
-132.75	-224.61
-133.67	-217.9
-133.97	-218.2
-133.36	-220.64
-131.23	-219.42
-125.12	-211.49
-114.75	-198.36
-103.76	-186.77
-97.35	-183.41
-97.96	-187.99
-102.23	-193.79
-106.2	-194.4
-107.42	-188.9
-107.42	-181.58
-111.39	-179.75
-121.15	-187.07
-132.45	-196.84
-136.72	-199.89
-128.48	-189.21
-109.56	-166.63
-89.11	-144.96
-78.74	-136.72
-80.57	-143.13
-88.2	-155.03
-95.52	-162.35
-100.1	-160.52
-104.37	-153.81
-112	-149.54
-120.85	-151.06
-127.56	-156.25
-129.39	-160.52
-126.04	-160.52
-119.02	-154.72
-108.64	-143.74
-96.13	-130.92
-85.45	-121.46
-80.57	-116.58
-83.31	-116.27
-91.55	-117.8
-100.4	-119.02
-106.2	-118.71
-108.03	-117.49
-108.03	-116.27
-111.39	-118.41
-119.63	-125.12
-131.23	-132.75
-140.08	-135.19
-139.47	-126.04
-126.95	-105.59
-107.73	-82.09
-91.25	-67.14
-85.75	-64.7
-93.99	-69.58
-113.22	-74.46
-135.19	-73.55
-152.28	-67.75
-161.13	-62.87
-165.1	-64.09
-168.76	-68.97
-173.95	-71.72
-178.53	-66.83
-179.75	-53.71
-176.39	-38.15
-169.07	-25.94
-157.78	-18.01
-142.52	-10.99
-125.12	-3.36
-111.39	2.75
-108.64	1.83
-116.27	-5.8
-123.6	-12.21
-119.32	-9.77
-100.1	1.53
-70.8	15.87
-42.72	23.5
-25.33	19.23
-18.31	7.02
-15.26	-6.71
-11.9	-17.4
-6.41	-22.89
-1.83	-26.25
-1.83	-32.96
-6.41	-44.25
-11.9	-55.85
-14.65	-63.78
-13.43	-64.7
-10.68	-60.42
-9.16	-57.07
-9.77	-57.98
-10.99	-61.95
-11.29	-67.14
-10.07	-70.19
-5.8	-68.36
3.05	-61.65
14.65	-51.57
22.89	-43.33
22.58	-40.89
12.21	-44.56
-0.92	-50.96
-8.24	-54.63
-7.02	-55.24
-0.92	-55.54
3.36	-58.59
2.14	-63.48
-3.66	-67.75
-10.38	-68.97
-15.87	-68.66
-19.84	-69.27
-22.28	-72.63
-23.19	-76.6
-23.8	-79.65
-25.33	-80.57
-26.55	-79.35
-25.63	-76.29
-21.97	-71.72
-15.87	-67.14
-11.9	-63.78
-12.82	-63.48
-18.62	-66.22
-25.33	-69.58
-28.08	-70.8
-26.55	-68.97
-24.41	-65.92
-27.16	-64.7
-36.01	-67.75
-45.78	-73.24
-48.52	-76.9
-40.59	-74.16
-25.94	-65.92
-13.43	-57.07
-10.07	-54.02
-17.4	-59.81
-29.91	-71.41
-38.45	-80.26
-38.45	-80.26
-31.43	-71.41
-21.97	-58.29
-15.56	-47.91
-15.56	-46.08
-20.45	-52.8
-25.94	-63.48
-29.3	-71.72
-29.6	-72.63
-27.16	-65.92
-24.72	-56.46
-22.58	-49.44
-21.06	-47.61
-19.23	-49.74
-16.78	-52.49
-14.04	-51.27
-11.29	-45.78
-8.24	-36.62
-2.44	-23.19
5.8	-3.97
14.65	22.58
20.14	55.85
21.36	91.55
21.36	123.6
24.41	146.18
32.65	155.03
44.56	151.06
54.32	137.94
59.2	123.29
59.81	112.92
57.68	108.34
54.93	105.29
50.35	96.13
43.03	75.68
33.57	47
24.11	17.09
18.31	-4.58
19.53	-14.04
24.11	-14.95
25.02	-15.56
15.87	-22.28
-2.44	-34.48
-21.97	-46.69
-32.04	-52.49
-30.52	-52.19
-24.72	-52.19
-23.19	-58.9
-28.38	-71.41
-37.23	-85.14
-45.47	-95.83
-50.96	-101.93
-54.02	-105.59
-54.93	-108.34
-51.57	-106.81
-42.72	-98.88
-30.82	-87.28
-20.14	-76.29
-13.43	-71.41
-11.6	-74.46
-12.82	-81.79
-16.17	-87.28
-21.06	-88.5
-27.77	-87.59
-36.93	-88.5
-45.47	-91.86
-48.52	-93.08
-43.64	-86.67
-31.43	-71.72
-16.78	-51.88
-2.14	-28.99
18.92	3.36
58.59	54.32
125.12	128.48
211.79	219.73
299.07	317.99
366.82	415.95
412.9	503.85
454.71	565.19
516.66	581.36
614.93	548.71
740.66	491.64
863.95	449.22
944.21(R)	440.06
943.3	436.4
843.2	378.72
657.04	219.73
423.58	-30.21
192.87	-299.99
9.16	-497.13
-106.51	-562.44
-158.39	-500.49
-162.66	-370.48
-140.69	-246.58
-112.61	-175.17
-95.52	-157.78
-97.05	-166.63
-112.92	-172.42
-131.23	-162.35
-139.16	-141.3
-133.06	-120.54
-119.63	-108.34
-110.17	-107.12
-109.56	-114.75
-114.14	-124.82
-116.88	-130.31
-114.14	-128.17
-106.51	-118.71
-99.49	-107.42
-95.52	-98.88
-93.99	-92.47
-92.77	-87.89
-90.94	-84.84
-89.72	-83.92
-90.94	-85.45
-94.3	-87.89
-99.79	-91.55
-107.73	-97.35
-116.58	-105.9
-123.29	-113.83
-123.6	-115.66
-115.05	-105.59
-99.79	-84.53
-84.53	-61.34
-75.99	-46.39
-77.82	-44.86
-86.36	-53.71
-96.13	-64.09
-100.71	-68.05
-99.79	-65.92
-97.35	-62.56
-98.27	-62.56
-103.76	-66.22
-108.34	-68.36
-104.98	-63.78
-91.25	-50.96
-74.46	-36.62
-65	-28.69
-70.19	-32.04
-87.59	-44.25
-106.2	-54.63
-114.44	-55.24
-108.95	-45.78
-95.52	-32.96
-84.23	-26.25
-83.31	-28.38
-92.16	-35.1
-104.98	-38.15
-114.14	-33.57
-115.66	-23.19
-110.47	-11.9
-104.06	-4.88
-102.23	-2.44
-109.25	-3.97
-124.51	-7.63
-142.82	-10.99
-156.86	-11.29
-162.35	-7.32
-159.3	3.05
-152.59	17.7
-147.71	32.35
-147.09	42.72
-148.01	48.83
-146.48	52.8
-142.82	55.85
-138.85	58.59
-135.8	61.65
-133.06	64.39
-128.17	67.44
-120.24	68.97
-111.69	67.75
-104.06	62.56
-94.3	57.07
-77.51	57.07
-50.05	66.22
-17.09	80.57
9.77	90.33
19.84	86.98
12.21	68.97
-4.27	44.56
-15.87	26.86
-13.43	23.8
0.31	34.79
16.17	50.05
23.8	58.29
20.75	54.63
11.29	41.2
2.44	25.33
-1.22	13.12
-0.31	6.71
0.92	1.83
-1.53	-5.8
-7.93	-16.78
-14.65	-27.16
-14.95	-30.52
-4.88	-22.58
10.68	-8.54
21.97	2.14
22.58	3.66
13.73	-1.53
3.36	-6.1
-0.61	-3.97
3.05	3.66
7.32	8.85
6.41	5.8
0	-3.36
-6.1	-12.51
-7.93	-16.78
-5.49	-16.78
-3.36	-16.17
-6.71	-19.53
-16.78	-28.08
-29.3	-38.45
-36.62	-43.64
-35.71	-40.59
-28.38	-31.74
-21.36	-22.89
-20.45	-21.06
-24.72	-25.02
-27.47	-28.08
-22.28	-22.28
-10.07	-7.63
2.44	8.24
7.93	16.17
3.66	13.12
-5.19	2.75
-12.51	-7.02
-14.65	-11.9
-12.82	-12.51
-9.77	-12.21
-9.16	-14.65
-14.04	-21.97
-22.89	-31.13
-32.96	-37.54
-39.37	-36.62
-37.54	-27.47
-28.08	-13.43
-15.87	-0.31
-5.8	8.54
0	13.43
1.22	15.26
-0.31	14.95
-3.97	11.6
-8.24	6.71
-10.99	2.14
-10.99	-0.31
-7.93	0.31
-4.58	2.44
-4.27	3.36
-7.93	2.44
-15.26	-0.61
-23.5	-5.19
-28.99	-6.41
-27.77	4.88
-17.09	35.1
3.05	84.53
26.25	141.3
45.47	188.9
57.98	217.59
65.61	226.44
72.63	222.17
81.79	213.01
87.89	199.89
85.45	182.5
73.85	164.18
58.9	149.23
47.3	137.94
43.64	126.65
47.61	111.39
55.24	92.77
62.26	76.9
64.39	68.97
57.07	65
38.45	55.54
11.29	35.71
-14.04	10.38
-28.69	-10.07
-28.99	-18.31
-21.36	-16.48
-16.78	-11.9
-20.45	-11.29
-26.86	-14.34
-28.69	-18.62
-23.5	-21.06
-15.56	-22.58
-12.51	-23.8
-16.48	-25.02
-22.89	-27.47
-26.86	-31.13
-26.25	-37.54
-23.5	-44.86
-22.28	-50.96
-24.72	-53.41
-31.43	-52.49
-38.45	-48.52
-40.89	-42.11
-35.71	-35.4
-23.8	-29.3
-11.29	-26.86
-6.1	-29.6
-9.46	-34.18
-16.48	-35.71
-20.14	-29.6
-14.04	-11.6
7.32	23.8
50.96	81.48
119.93	163.57
210.27	266.11
304.87	379.33
382.08	490.72
432.13	585.94
467.83	645.14
518.49	653.69
610.05	614.93
741.58	555.42
880.74	512.7
977.17	500.79
983.28(R)	492.25
878.3	430.6
682.37	274.96
445.86	36.62
223.39	-218.51
54.02	-408.02
-53.71	-479.74
-113.22	-434.57
-139.47	-321.35
-142.52	-204.77
-129.39	-128.78
-111.08	-102.23
-99.79	-106.2
-101.01	-114.44
-112	-112
-122.99	-99.18
-124.82	-83.62
-115.66	-71.11
-101.32	-63.17
-90.03	-59.81
-87.59	-59.81
-93.08	-61.04
-101.93	-61.34
-107.42	-60.12
-107.42	-57.98
-103.15	-56.46
-97.35	-54.02
-92.47	-49.13
-90.03	-43.64
-90.94	-40.59
-94.91	-41.81
-98.88	-45.17
-99.18	-46.69
-95.21	-43.64
-88.81	-36.62
-84.53	-28.99
-84.84	-24.72
-89.42	-24.41
-94.6	-26.55
-97.66	-29.3
-97.35	-30.21
-93.69	-27.47
-88.81	-21.36
-84.23	-13.12
-80.26	-4.27
-75.68	3.05
-71.72	5.49
-69.58	0.61
-71.11	-9.16
-75.99	-17.4
-82.7	-17.4
-87.89	-8.24
-90.33	3.66
-90.94	8.85
-91.86	2.44
-93.99	-10.07
-95.52	-18.62
-94.3	-17.09
-89.72	-7.02
-85.45	4.88
-84.84	10.99
-90.33	9.77
-99.49	4.27
-107.42	1.22
-110.47	4.58
-109.25	13.73
-106.51	24.72
-106.81	32.96
-111.39	35.4
-119.02	33.87
-126.04	32.04
-130.92	31.13
-135.8	29.91
-141.6	28.69
-148.93	28.99
-154.72	32.96
-155.64	41.81
-151.06	53.41
-144.65	64.09
-140.99	71.72
-140.99	77.51
-142.21	83.31
-141.3	88.5
-136.11	91.55
-127.56	92.47
-116.88	93.38
-104.98	96.13
-91.55	100.1
-77.51	102.84
-63.48	101.01
-50.35	95.52
-38.15	90.94
-26.25	90.33
-14.34	93.08
-3.36	95.21
4.88	92.16
9.16	82.09
9.77	67.75
8.85	53.71
7.93	44.86
7.32	41.2
5.19	40.59
1.22	39.67
-2.75	37.54
-4.88	34.18
-2.14	31.13
4.58	28.08
10.99	24.41
14.34	20.45
13.12	17.7
8.24	17.7
3.05	19.53
0	20.45
-0.61	18.01
-0.92	11.9
-3.36	3.97
-8.24	-3.36
-12.51	-6.1
-11.9	-2.44
-6.1	6.1
0.61	14.95
3.97	18.92
3.66	17.7
1.83	14.65
2.14	14.04
3.66	15.56
1.22	14.34
-6.41	9.16
-15.26	2.14
-20.75	-3.36
-20.14	-5.8
-14.95	-5.19
-8.85	-2.44
-5.49	2.44
-4.58	7.63
-6.1	10.38
-9.16	7.32
-12.51	0.31
-14.65	-6.1
-15.87	-8.85
-18.31	-10.07
-22.28	-13.43
-26.25	-18.92
-27.47	-23.19
-25.63	-21.67
-21.97	-14.04
-19.23	-4.27
-18.62	1.83
-19.23	1.53
-19.84	-2.75
-20.75	-7.63
-21.67	-10.38
-22.28	-11.9
-22.28	-13.43
-21.36	-15.56
-20.14	-17.7
-18.92	-15.87
-17.09	-9.77
-15.26	-0.92
-14.34	5.19
-15.56	5.49
-16.78	1.22
-16.48	-3.97
-13.73	-5.8
-9.16	-2.44
-5.8	3.66
-6.1	8.24
-8.85	8.24
-13.43	3.97
-18.01	-0.31
-19.84	0.92
-15.56	15.56
-1.53	47.3
20.14	92.47
43.03	141.3
57.68	180.66
57.37	200.5
47.61	202.03
39.37	194.7
42.42	188.29
57.07	187.07
74.77	186.77
82.7	180.36
75.68	164.18
59.81	142.21
46.39	119.93
43.03	101.93
49.74	89.42
60.42	80.26
65.92	70.5
60.12	56.46
40.89	36.01
12.21	11.29
-16.17	-9.46
-32.65	-17.7
-31.13	-11.6
-16.17	0
-3.36	2.75
-4.88	-10.99
-20.14	-33.57
-36.62	-50.96
-42.42	-54.63
-35.71	-47.3
-24.72	-39.67
-18.92	-40.28
-21.06	-47.61
-26.55	-54.02
-29.6	-54.63
-29.6	-50.35
-28.38	-45.47
-28.08	-44.25
-28.69	-47.61
-29.91	-53.71
-30.21	-57.98
-29.6	-59.2
-28.38	-56.76
-25.94	-52.19
-22.89	-47.91
-20.14	-43.64
-16.48	-38.76
-12.21	-30.52
-5.49	-15.56
10.38	14.95
46.39	68.66
109.56	147.09
197.14	245.06
290.53	350.65
367.13	454.41
416.26	549.62
450.44	621.95
498.35	652.16
585.94	630.8
715.64	572.51
859.07	515.75
970.76	491.03
1005.25(R)	490.42
934.75	462.95
764.16	349.12
532.23	132.14
292.05	-139.16
92.47	-376.28
-41.5	-502.62
-114.44	-495.3
-145.87	-395.2
-152.89	-274.35
-147.71	-189.82
-138.85	-157.17
-131.53	-155.03
-126.65	-154.72
-123.9	-141.3
-122.07	-121.15
-121.77	-108.34
-122.07	-107.12
-120.24	-109.86
-114.44	-107.12
-106.2	-98.57
-101.62	-91.55
-103.45	-91.55
-108.34	-95.52
-109.56	-95.52
-103.76	-87.59
-97.05	-77.82
-96.74	-75.99
-102.54	-82.4
-107.42	-89.42
-107.12	-88.5
-101.62	-79.96
-97.66	-71.41
-100.4	-72.02
-107.42	-81.18
-111.69	-89.11
-108.95	-87.28
-100.1	-75.07
-90.94	-58.9
-87.59	-48.83
-90.64	-48.83
-95.21	-55.54
-97.96	-62.26
-97.05	-63.48
-93.38	-56.76
-89.72	-46.39
-86.67	-37.54
-84.53	-33.87
-84.53	-36.62
-87.28	-42.72
-92.16	-47.3
-95.52	-47.61
-96.13	-44.86
-93.99	-41.2
-92.47	-38.45
-94.3	-37.23
-100.4	-37.23
-107.42	-38.45
-111.39	-41.2
-111.39	-43.03
-108.03	-41.5
-104.98	-35.4
-103.76	-27.16
-104.68	-20.75
-105.9	-18.92
-107.73	-20.75
-110.47	-23.19
-115.36	-23.19
-120.54	-18.62
-123.6	-10.38
-124.21	-0.31
-124.82	8.24
-129.39	11.9
-139.77	9.46
-152.59	3.36
-162.96	-1.83
-167.85	-2.14
-166.63	5.19
-161.74	18.01
-158.08	30.21
-157.47	37.84
-159	39.06
-160.83	36.32
-158.08	35.4
-148.01	40.89
-130.62	52.8
-110.17	66.53
-91.86	76.29
-78.43	78.13
-69.89	72.33
-62.87	63.17
-52.8	55.85
-37.54	54.32
-20.14	57.07
-4.58	60.12
4.88	58.59
5.8	49.13
0.61	34.18
-6.1	18.92
-10.07	8.24
-9.16	3.66
-3.05	3.66
5.19	4.58
12.51	4.58
15.26	1.83
12.51	-3.05
6.71	-9.46
1.53	-14.65
-0.92	-15.87
-1.22	-13.43
-0.61	-8.24
0.92	-3.97
3.05	-3.36
4.27	-7.02
3.05	-14.34
-2.75	-23.8
-11.6	-32.65
-18.92	-38.45
-20.14	-38.76
-15.87	-34.79
-8.85	-29.3
-3.05	-24.11
-0.61	-20.45
-0.61	-19.23
-0.92	-20.75
-2.14	-25.94
-4.58	-34.48
-8.54	-42.11
-11.6	-43.64
-11.9	-38.15
-10.99	-30.52
-11.9	-28.99
-15.56	-35.1
-18.92	-43.64
-18.01	-47.3
-12.51	-44.25
-7.63	-39.06
-8.24	-39.06
-14.65	-46.39
-21.36	-55.54
-22.58	-60.73
-18.31	-59.2
-11.9	-53.71
-8.54	-49.74
-9.46	-50.35
-13.12	-54.02
-17.09	-58.59
-19.84	-60.12
-21.67	-57.68
-23.5	-52.49
-24.72	-46.39
-24.72	-41.81
-23.19	-41.2
-20.75	-45.78
-18.31	-52.19
-15.87	-56.76
-15.56	-57.07
-18.01	-52.8
-21.36	-46.69
-21.97	-40.59
-17.09	-35.71
-9.16	-33.57
-4.27	-35.1
-7.32	-39.98
-17.09	-46.39
-27.47	-51.57
-31.13	-52.8
-25.94	-49.74
-14.95	-42.11
-3.66	-31.43
5.8	-17.4
13.12	-0.31
19.23	18.62
25.33	41.2
30.52	68.05
32.65	96.13
30.21	120.24
25.63	135.8
25.02	142.52
32.35	143.74
47.3	144.65
63.17	146.18
72.02	145.87
70.8	139.77
63.17	126.34
54.93	106.81
51.57	84.23
53.1	62.26
55.85	43.03
53.71	25.33
44.25	9.46
28.38	-2.75
10.07	-11.6
-5.19	-15.87
-13.73	-18.01
-16.17	-23.5
-15.87	-34.18
-15.26	-47.91
-17.09	-61.34
-20.75	-71.11
-24.11	-75.07
-24.72	-74.16
-21.36	-71.72
-16.17	-71.11
-13.12	-76.6
-17.7	-89.72
-30.82	-105.59
-46.08	-115.97
-56.15	-115.97
-56.15	-107.12
-46.39	-95.83
-33.87	-90.03
-25.02	-91.86
-22.58	-97.05
-24.11	-100.71
-27.47	-101.01
-30.82	-97.96
-32.04	-92.16
-32.04	-85.75
-31.13	-81.48
-28.69	-79.04
-21.97	-72.63
-6.41	-51.88
24.41	-6.41
75.38	65
145.57	154.42
227.66	249.63
308.23	344.54
374.45	440.06
422.36	530.09
465.39	596.62
527.95	618.29
630.19	589.9
768.43	533.75
909.73	487.67
1004.94	469.67
1009.22(R)	457.46
903.32	397.64
706.48	245.67
464.48	6.71
229.49	-259.4
41.5	-468.44
-80.57	-558.47
-143.13	-521.55
-161.74	-404.66
-153.81	-279.54
-135.5	-198.36
-120.85	-173.34
-115.05	-180.97
-116.58	-187.68
-118.71	-177.92
-117.19	-156.86
-112	-138.85
-106.2	-133.06
-104.37	-137.63
-106.2	-144.04
-108.95	-144.65
-109.86	-138.24
-108.64	-127.87
-108.03	-119.02
-110.17	-115.05
-115.36	-116.58
-121.77	-121.46
-127.56	-127.56
-130.62	-133.67
-129.7	-136.72
-125.12	-133.06
-116.58	-121.15
-105.9	-105.9
-97.05	-94.6
-93.38	-92.77
-94.6	-98.27
-97.35	-103.45
-98.27	-101.93
-96.44	-93.38
-93.99	-83.62
-92.77	-78.43
-93.69	-79.04
-95.21	-82.4
-96.74	-84.23
-98.27	-83.01
-99.79	-79.35
-99.79	-74.77
-96.44	-69.58
-91.25	-63.48
-86.98	-59.2
-88.2	-60.42
-96.44	-69.27
-107.42	-81.48
-114.14	-89.11
-112.3	-85.45
-103.15	-72.33
-93.69	-57.37
-89.72	-48.52
-91.25	-47.61
-94.91	-49.44
-96.74	-48.52
-97.05	-43.95
-98.57	-40.28
-102.23	-41.5
-107.42	-47.3
-112.61	-54.02
-118.1	-57.37
-125.43	-55.24
-133.06	-49.13
-137.94	-41.5
-139.47	-34.79
-140.08	-29.6
-144.04	-27.16
-153.2	-26.25
-162.66	-24.41
-166.93	-20.45
-164.18	-14.95
-159.3	-9.77
-158.08	-6.41
-162.05	-3.05
-166.32	2.14
-164.49	10.68
-154.42	21.36
-140.69	30.82
-129.7	35.4
-123.6	34.79
-119.32	32.35
-110.78	31.43
-96.44	34.18
-78.74	37.84
-62.26	38.76
-47.61	36.01
-32.96	33.87
-18.31	34.79
-6.1	37.84
0.61	38.15
0.92	32.35
-1.53	22.28
-2.44	12.21
-2.14	4.58
-2.75	-3.05
-5.49	-12.21
-7.32	-20.14
-5.19	-22.89
0.31	-21.06
-4.27	-160.22
-6.1	-151.98
-6.41	-147.09
-5.19	-147.09
-0.61	-146.48
10.07	-134.28
26.25	-105.9
43.64	-65.92
55.85	-25.02
57.98	7.63
50.35	27.77
40.89	35.4
38.45	32.65
46.69	23.19
62.87	10.99
78.13	1.53
84.84	-1.53
78.74	-1.53
62.87	-7.02
46.39	-25.63
37.84	-54.93
43.03	-85.14
57.98	-103.76
69.89	-106.81
65.92	-102.84
39.67	-104.06
-0.31	-116.88
-35.71	-137.63
-49.44	-155.64
-38.15	-164.49
-13.12	-164.18
7.63	-160.83
11.29	-159.3
0.61	-161.44
-12.21	-166.93
-17.09	-176.7
-11.29	-189.21
-2.44	-197.45
2.14	-194.4
0.31	-180.97
-6.41	-168.76
-14.95	-169.68
-22.89	-186.77
-30.21	-207.82
-34.18	-216.67
-32.35	-208.44
-25.63	-193.18
-18.62	-184.94
-16.78	-188.6
-21.06	-196.53
-27.77	-196.23
-30.82	-184.02
-26.86	-168.15
-15.87	-158.39
1.22	-152.89
27.47	-136.11
67.75	-90.33
125.73	-11.29
198.06	86.67
273.13	184.02
339.05	274.96
392.15	364.38
443.12	448.61
511.17	509.64
611.27	526.43
738.83	498.35
863.65	447.08
941.47(R)	394.29
929.57	334.47
810.24	230.41
604.55	51.88
360.11	-185.24
133.67	-416.87
-32.35	-569.46
-124.21	-602.11
-156.25	-530.4
-152.89	-412.9
-136.11	-311.89
-120.24	-258.18
-111.08	-247.19
-108.34	-253.91
-109.25	-257.26
-109.86	-250.55
-109.56	-242
-108.64	-240.17
-108.03	-243.84
-107.73	-244.75
-106.51	-238.34
-102.54	-226.44
-96.74	-216.37
-91.86	-212.71
-90.33	-213.62
-93.69	-212.4
-100.71	-204.47
-105.9	-192.26
-104.98	-182.8
-95.83	-183.11
-82.4	-191.65
-71.72	-200.2
-69.27	-200.2
-72.63	-188.6
-75.38	-173.65
-72.63	-167.54
-65.61	-173.34
-60.73	-183.72
-62.56	-185.55
-70.8	-175.17
-81.48	-159
-90.33	-149.23
-93.99	-150.15
-91.55	-155.03
-83.31	-156.56
-72.33	-154.72
-62.56	-153.2
-58.29	-154.11
-61.04	-153.2
-68.05	-146.79
-74.46	-137.33
-77.21	-131.53
-76.6	-133.67
-73.55	-140.38
-69.89	-144.96
-68.36	-141.3
-70.8	-131.84
-76.9	-123.29
-84.23	-120.85
-88.2	-124.51
-85.14	-129.39
-76.9	-128.17
-70.19	-117.8
-70.19	-101.32
-75.68	-86.06
-82.7	-79.96
-85.45	-84.84
-84.84	-95.52
-85.14	-104.06
-90.03	-104.06
-99.18	-95.21
-109.56	-83.62
-116.88	-73.24
-120.54	-65.61
-122.38	-58.29
-122.68	-47.91
-121.46	-35.71
-119.93	-26.25
-118.71	-24.41
-119.32	-30.52
-122.38	-38.76
-126.04	-43.03
-127.26	-40.89
-122.99	-34.18
-111.69	-25.33
-93.38	-14.65
-72.33	-2.44
-52.8	9.16
-38.76	15.56
-30.21	13.43
-24.11	5.19
-17.09	-4.27
-7.93	-10.99
2.75	-14.65
13.12	-19.23
19.53	-28.38
21.97	-42.11
21.36	-55.54
19.23	-63.48
17.4	-62.26
18.31	-53.41
21.67	-44.56
25.02	-44.25
26.25	-54.93
23.5	-71.72
18.31	-85.14
13.73	-89.11
12.51	-83.62
14.04	-74.77
15.87	-68.97
16.48	-68.97
16.17	-72.02
17.4	-75.38
19.84	-77.51
21.36	-78.74
20.45	-79.96
16.17	-80.26
10.38	-80.57
4.88	-80.87
0.92	-82.7
-0.31	-86.36
2.14	-90.64
7.63	-92.77
13.12	-91.55
15.26	-88.2
11.29	-84.23
3.97	-81.79
-2.14	-81.48
-3.36	-83.62
-0.31	-86.98
4.27	-89.72
6.71	-90.94
5.49	-90.33
1.53	-88.81
-3.66	-87.28
-8.24	-86.36
-12.82	-86.98
-17.4	-89.42
-20.14	-93.38
-20.75	-97.35
-18.92	-101.01
-16.78	-104.37
-16.78	-108.34
-20.14	-112.61
-25.33	-115.05
-29.91	-113.83
-32.04	-110.17
-30.82	-106.51
-27.47	-105.59
-24.72	-108.03
-24.11	-111.69
-25.94	-114.44
-29.3	-115.05
-31.13	-112.61
-29.3	-105.9
-24.11	-93.99
-16.17	-75.99
-6.71	-51.88
3.97	-21.67
13.43	13.12
18.31	46.69
16.78	73.55
11.29	88.81
7.93	93.08
12.51	90.94
24.11	86.36
37.54	80.26
45.47	70.5
43.95	55.54
33.87	36.01
19.84	13.43
7.63	-7.93
3.97	-23.8
11.29	-32.96
26.25	-37.54
37.23	-42.72
32.65	-56.15
7.02	-79.65
-32.04	-107.73
-66.83	-130.62
-81.79	-140.99
-73.85	-139.16
-53.71	-132.45
-39.06	-130
-39.98	-134.58
-54.02	-143.13
-68.36	-149.84
-72.94	-152.59
-66.83	-152.89
-56.76	-153.5
-50.66	-156.25
-50.96	-159.61
-55.24	-161.13
-58.59	-160.22
-58.59	-157.47
-57.07	-155.33
-57.07	-155.33
-60.73	-157.17
-67.44	-159.91
-72.94	-160.83
-72.63	-157.47
-65.31	-149.23
-55.54	-140.08
-49.13	-134.28
-50.35	-133.97
-56.15	-136.72
-58.59	-132.14
-47.3	-109.56
-14.04	-61.65
43.33	11.6
118.1	102.84
195.62	201.72
259.7	300.9
302.43	394.9
332.64	471.8
374.45	515.44
451.97	516.05
571.59	481.57
709.23	434.57
819.09	394.59
851.14(R)	356.75
778.2	285.95
610.66	143.13
392.46	-74.77
177.92	-318.91
9.16	-512.08
-97.05	-591.43
-148.62	-546.57
-164.18	-425.42
-160.83	-301.51
-149.54	-226.14
-137.94	-205.69
-128.78	-212.71
-122.38	-216.67
-119.93	-205.08
-121.77	-185.85
-125.43	-172.12
-128.17	-169.07
-125.43	-171.2
-117.8	-171.51
-109.56	-168.15
-105.9	-163.27
-108.03	-161.13
-111.39	-162.96
-113.53	-167.54
-114.75	-170.9
-116.88	-169.68
-120.54	-163.27
-121.77	-155.33
-117.8	-149.54
-111.39	-148.32
-107.12	-151.06
-106.81	-154.11
-107.73	-155.64
-107.12	-155.03
-104.06	-153.5
-101.32	-151.37
-101.93	-148.93
-106.2	-144.96
-112.92	-140.99
-119.02	-139.16
-123.9	-141.6
-125.73	-147.4
-124.21	-152.89
-120.24	-154.42
-115.36	-150.15
-111.69	-142.82
-110.17	-136.72
-111.69	-134.89
-114.75	-137.33
-117.8	-140.99
-119.63	-141.91
-119.02	-137.94
-117.49	-130.62
-115.97	-122.07
-115.66	-114.44
-115.97	-109.25
-117.19	-107.12
-119.32	-106.81
-121.46	-107.73
-122.07	-107.12
-120.85	-104.37
-119.32	-99.49
-119.32	-94.3
-120.85	-90.33
-123.9	-86.36
-125.43	-81.18
-125.12	-74.77
-125.43	-68.05
-129.39	-62.87
-137.94	-59.81
-148.62	-58.59
-158.08	-57.68
-162.35	-54.63
-159.91	-47.3
-154.72	-35.71
-150.45	-22.89
-149.23	-12.51
-151.37	-8.54
-154.42	-9.46
-153.81	-9.16
-147.71	-0.61
-135.8	17.4
-120.54	38.45
-106.2	51.88
-94.91	51.27
-86.06	40.28
-76.6	29.3
-63.78	27.77
-47.91	35.4
-32.96	43.64
-23.19	43.64
-18.31	34.79
-14.95	22.58
-9.16	14.65
-1.53	12.21
2.14	11.9
-0.61	8.54
-7.93	0
-13.12	-11.9
-12.82	-24.72
-7.63	-34.18
-2.75	-38.76
-1.22	-38.15
-3.05	-36.32
-5.19	-39.37
-7.32	-48.83
-8.85	-58.9
-9.77	-59.81
-10.07	-48.22
-9.46	-31.74
-7.93	-22.28
-5.8	-25.63
-2.14	-39.06
1.22	-52.49
2.14	-59.2
-1.83	-60.42
-9.77	-61.04
-17.09	-63.48
-19.23	-66.53
-14.95	-67.14
-9.16	-64.39
-7.63	-59.51
-11.6	-54.02
-16.78	-49.74
-17.4	-48.22
-10.68	-51.57
0.31	-61.34
7.93	-74.46
6.41	-83.62
-4.27	-82.7
-17.09	-72.63
-24.41	-61.65
-22.58	-57.98
-14.95	-63.48
-8.85	-72.33
-8.85	-75.99
-14.04	-72.02
-19.53	-65
-22.58	-61.95
-23.19	-67.14
-22.28	-78.13
-21.06	-89.11
-18.01	-91.55
-12.21	-80.26
-7.32	-59.81
-7.32	-41.5
-12.21	-35.4
-17.4	-44.25
-18.62	-59.51
-13.43	-68.97
-6.41	-64.7
-1.53	-48.52
0.31	-30.21
0.61	-19.84
2.44	-20.45
5.8	-27.77
9.46	-31.13
13.12	-20.45
18.31	4.27
25.63	36.93
34.48	67.44
42.42	89.72
46.39	106.81
47	124.21
48.22	144.04
55.24	163.57
69.58	176.39
86.98	177.31
98.57	165.1
97.05	145.26
83.31	125.12
66.22	110.47
57.68	101.93
60.73	93.99
71.11	79.65
79.96	56.46
78.43	27.77
63.78	0
37.23	-20.75
5.19	-34.79
-24.72	-45.17
-43.64	-54.93
-46.39	-66.83
-36.93	-81.18
-23.5	-96.13
-14.95	-109.56
-13.73	-120.24
-18.01	-128.78
-24.11	-134.28
-29.6	-136.11
-35.4	-134.28
-43.64	-131.53
-55.54	-133.97
-67.14	-144.96
-72.02	-158.39
-67.75	-164.18
-56.15	-155.64
-42.72	-136.72
-35.1	-120.54
-36.32	-116.88
-41.5	-122.99
-44.25	-129.39
-42.11	-128.17
-36.93	-119.93
-33.87	-109.25
-37.23	-101.62
-42.42	-98.27
-38.76	-93.69
-15.56	-75.99
31.74	-33.57
100.71	38.45
182.5	132.75
263.98	237.43
333.56	345.15
383.61	454.71
417.79	557.86
453.49	631.71
514.53	654.3
610.96	625.31
728.15	572.51
827.94	526.12
861.21(R)	483.7
793.76	404.97
629.88	246.58
408.63	9.77
184.63	-246.58
7.93	-439.76
-98.27	-513
-141.91	-467.83
-145.57	-357.06
-130.92	-248.72
-113.83	-184.63
-102.84	-168.46
-99.49	-176.39
-99.18	-182.8
-98.57	-177
-94.91	-163.27
-90.33	-149.23
-89.72	-140.08
-94.6	-136.72
-101.93	-136.72
-107.12	-139.77
-106.2	-144.96
-98.57	-148.32
-87.59	-147.09
-77.51	-140.69
-72.63	-131.53
-72.63	-122.68
-72.94	-116.88
-69.89	-114.14
-62.56	-113.53
-56.76	-114.44
-56.76	-113.53
-64.09	-108.34
-73.55	-100.1
-78.43	-91.86
-77.21	-88.2
-72.02	-93.08
-67.75	-103.15
-68.66	-112.3
-74.77	-115.66
-80.87	-112.92
-82.4	-107.42
-76.9	-102.54
-67.44	-99.18
-60.12	-95.52
-59.81	-89.11
-65.92	-80.57
-71.72	-72.02
-73.24	-67.14
-69.89	-68.36
-65.31	-75.68
-64.39	-85.45
-67.75	-91.86
-72.33	-90.33
-73.55	-81.18
-70.8	-70.5
-66.53	-64.39
-64.09	-64.7
-66.83	-68.66
-73.85	-71.11
-80.57	-68.36
-83.92	-61.34
-83.62	-54.02
-81.79	-49.44
-81.48	-48.22
-84.53	-49.44
-90.94	-51.27
-97.96	-52.19
-103.15	-51.27
-106.2	-47.91
-107.12	-41.81
-108.34	-34.18
-112.3	-27.47
-119.63	-23.5
-127.56	-22.89
-132.75	-24.11
-133.97	-23.5
-130.62	-18.31
-124.82	-7.93
-118.41	5.49
-112.92	18.31
-109.56	26.86
-108.03	31.13
-105.59	33.26
-99.18	36.62
-86.06	41.81
-67.75	47
-48.83	49.44
-33.87	47.61
-24.41	42.42
-18.62	36.01
-13.12	30.21
-5.19	26.25
6.1	23.8
18.01	21.67
27.47	16.48
30.82	6.71
27.77	-5.49
21.97	-15.87
18.62	-20.45
19.53	-20.75
21.67	-21.67
21.36	-26.86
17.09	-35.71
11.29	-43.33
8.24	-47
10.07	-46.69
15.87	-44.86
21.67	-44.25
23.19	-44.86
19.53	-45.47
12.82	-46.08
6.71	-46.08
5.49	-45.78
10.38	-44.25
17.09	-40.89
19.84	-37.54
16.78	-36.32
9.16	-38.15
3.66	-40.89
4.27	-41.2
10.07	-37.23
15.26	-31.13
15.26	-27.16
10.68	-28.38
6.41	-34.18
6.71	-39.37
10.38	-39.37
14.34	-34.18
14.95	-27.16
12.21	-22.28
9.77	-20.75
9.46	-21.67
9.77	-22.58
7.63	-23.19
2.14	-24.11
-4.88	-23.5
-8.85	-21.06
-7.63	-16.48
-2.75	-12.21
1.83	-11.29
3.66	-14.65
3.97	-19.84
5.49	-22.58
8.54	-21.97
11.6	-18.92
11.6	-16.48
8.24	-15.87
4.58	-16.48
3.05	-16.48
2.44	-14.95
0.92	-13.43
-2.14	-13.73
-5.19	-16.48
-5.19	-21.06
-2.44	-25.94
-0.61	-29.6
0	-28.99
3.05	-20.14
13.73	2.14
30.52	38.76
46.39	84.23
52.49	127.26
47.3	156.56
37.54	166.93
33.87	162.35
41.81	152.59
58.9	145.57
75.99	143.13
83.92	140.69
80.57	132.45
69.27	116.88
57.98	94.91
53.1	71.72
55.85	50.96
61.65	34.79
64.7	23.19
61.65	14.34
49.74	4.88
30.52	-7.93
7.93	-25.33
-12.51	-43.03
-25.33	-57.07
-26.86	-63.78
-18.31	-65
-6.41	-64.39
1.22	-65.61
1.22	-69.27
-4.58	-73.55
-10.68	-77.21
-13.73	-79.96
-14.34	-82.09
-15.26	-83.01
-18.92	-83.31
-24.11	-83.62
-27.77	-85.14
-27.77	-88.81
-24.11	-92.77
-18.01	-94.91
-12.21	-94.6
-8.85	-92.47
-9.46	-91.86
-14.04	-93.69
-20.75	-97.05
-25.94	-99.79
-28.08	-99.49
-25.33	-94.91
-18.01	-86.06
-6.71	-69.89
10.99	-41.2
41.81	4.58
92.16	71.11
161.74	157.17
241.09	256.35
312.5	361.63
364.38	461.12
403.14	534.06
450.74	561.22
529.79	538.64
645.14	485.53
771.79	430.91
864.56	391.54
874.94(R)	350.65
779.72	264.59
596.62	100.4
372.62	-127.26
162.96	-357.06
8.54	-513.92
-81.79	-552.06
-122.38	-481.87
-133.36	-361.02
-129.39	-255.13
-121.46	-198.06
-115.66	-185.24
-113.53	-189.51
-113.83	-187.38
-112.61	-172.73
-107.12	-154.11
-99.18	-141.91
-92.47	-138.85
-89.11	-141.3
-88.81	-145.26
-90.03	-148.01
-92.16	-148.01
-93.99	-145.26
-93.38	-140.69
-87.89	-134.89
-79.04	-129.7
-70.8	-125.12
-67.75	-122.68
-71.72	-122.99
-80.57	-125.43
-90.03	-128.17
-94.91	-128.17
-94.3	-124.21
-89.42	-117.49
-84.23	-111.69
-81.48	-109.25
-81.79	-110.17
-83.01	-111.69
-81.18	-110.78
-77.21	-106.51
-73.55	-100.1
-72.94	-94.3
-75.38	-91.25
-78.74	-90.33
-79.04	-90.03
-75.68	-88.2
-72.33	-85.14
-72.02	-81.79
-75.68	-79.65
-81.18	-79.35
-85.14	-79.96
-85.14	-79.35
-81.18	-76.9
-75.68	-73.24
-72.63	-71.41
-73.85	-72.33
-79.04	-75.68
-84.23	-79.04
-85.75	-79.65
-82.09	-77.82
-76.29	-74.46
-75.07	-72.33
-82.7	-72.02
-97.05	-72.63
-111.39	-72.02
-118.71	-69.27
-116.27	-64.7
-108.34	-59.51
-101.62	-54.63
-100.1	-50.66
-104.68	-47.61
-113.22	-45.47
-123.29	-43.64
-133.06	-41.5
-140.08	-38.76
-143.13	-35.1
-141.91	-31.74
-138.85	-28.08
-134.89	-23.8
-130.62	-18.31
-125.12	-11.6
-117.8	-4.88
-109.25	1.53
-101.62	7.32
-95.83	12.21
-89.42	16.78
-79.35	21.36
-65.31	24.72
-49.74	25.63
-36.32	24.41
-26.86	21.67
-19.84	18.01
-13.12	13.43
-6.71	6.41
-3.05	-4.88
-3.97	-18.62
-8.85	-31.74
-13.43	-39.98
-14.04	-42.11
-10.07	-40.28
-3.97	-38.76
-0.61	-41.81
-1.83	-50.96
-6.41	-63.17
-9.77	-73.85
-10.38	-78.43
-9.16	-76.29
-8.24	-69.27
-9.77	-61.95
-11.6	-56.46
-10.38	-54.02
-5.19	-53.71
0.92	-55.24
4.27	-57.68
3.05	-60.12
-0.92	-61.04
-3.97	-59.51
-5.19	-57.37
-6.1	-57.68
-8.85	-64.09
-11.9	-74.16
-11.29	-83.31
-6.41	-84.84
-3.05	-77.51
-6.1	-66.53
-16.78	-60.12
-27.77	-63.48
-32.04	-74.16
-27.16	-84.53
-18.92	-85.14
-12.51	-72.63
-9.16	-52.8
-8.24	-37.23
-8.54	-36.32
-10.68	-50.35
-14.34	-69.27
-17.7	-80.26
-18.31	-77.21
-17.09	-65.92
-18.01	-59.2
-22.28	-65.31
-26.86	-80.26
-27.16	-92.77
-22.28	-92.77
-15.26	-79.35
-10.68	-60.73
-10.68	-47.61
-13.73	-44.56
-16.48	-48.22
-18.01	-51.57
-19.23	-50.05
-21.36	-44.25
-23.5	-41.2
-24.41	-47.3
-22.89	-63.48
-19.53	-81.48
-18.01	-90.33
-19.23	-83.01
-20.75	-63.48
-17.4	-40.89
-6.1	-23.8
10.99	-11.9
27.47	3.66
37.23	30.82
37.54	66.83
32.35	100.71
27.16	121.15
24.72	124.21
28.08	117.19
37.84	110.78
51.88	111.39
65.92	116.88
74.46	118.71
72.33	110.17
60.42	89.72
46.69	65
40.89	45.47
46.08	35.4
59.51	33.57
70.5	32.04
68.05	22.28
48.83	0.61
17.4	-29.3
-14.34	-57.68
-34.79	-73.85
-39.67	-75.38
-32.04	-68.05
-19.84	-62.26
-10.07	-65.61
-7.02	-78.13
-10.07	-91.86
-16.78	-99.18
-24.41	-98.88
-28.69	-94.6
-27.77	-92.16
-24.11	-94.3
-21.97	-98.27
-23.19	-99.79
-26.55	-95.52
-28.08	-87.59
-24.72	-81.18
-19.84	-81.48
-18.31	-87.59
-21.36	-94.3
-26.55	-97.35
-29.3	-97.05
-26.86	-95.83
-21.36	-94.91
-15.87	-92.47
-11.6	-84.84
-6.41	-68.05
6.1	-38.45
35.4	7.32
88.81	70.5
166.63	148.93
258.18	237.73
344.54	335.39
409.85	440.37
454.1	540.16
496.52	610.66
561.83	630.8
664.06	601.2
787.66	546.26
888.67	491.64
914.00(R)	437.32
829.47	349.43
644.53	192.57
408.02	-29.3
182.19	-261.54
14.04	-431.21
-83.62	-490.42
-126.65	-444.03
-138.55	-341.8
-134.89	-242.61
-124.82	-182.5
-113.53	-162.96
-105.59	-165.1
-103.15	-167.85
-104.68	-161.44
-105.59	-146.48
-101.62	-129.09
-93.08	-115.36
-84.23	-108.64
-77.82	-108.34
-75.99	-113.53
-79.04	-121.15
-83.62	-126.95
-86.06	-127.26
-84.84	-120.24
-80.87	-105.9
-77.51	-90.03
-77.82	-79.65
-80.87	-80.57
-83.31	-93.69
-81.48	-110.78
-75.68	-120.85
-69.58	-117.49
-68.05	-103.76
-72.33	-88.5
-79.96	-80.87
-86.06	-84.84
-86.98	-95.83
-82.7	-105.29
-75.68	-106.51
-69.58	-97.05
-66.83	-79.96
-67.75	-63.48
-71.72	-55.85
-76.6	-60.42
-78.43	-71.41
-75.99	-79.65
-70.8	-79.96
-66.22	-75.07
-65.92	-72.63
-72.33	-78.43
-81.18	-88.2
-87.89	-92.47
-90.03	-84.23
-88.2	-66.53
-84.53	-48.83
-80.26	-40.89
-76.29	-45.17
-73.55	-56.76
-72.94	-67.14
-75.68	-69.27
-79.96	-62.56
-83.31	-50.96
-84.53	-40.59
-84.84	-36.62
-88.2	-40.59
-96.44	-49.44
-108.03	-55.54
-118.41	-53.41
-124.51	-42.72
-124.51	-29.91
-122.38	-22.89
-123.29	-22.58
-127.87	-24.11
-133.97	-19.53
-138.24	-8.24
-138.55	3.36
-135.8	9.77
-132.45	10.68
-130.62	11.9
-128.78	18.62
-125.43	30.52
-119.63	43.03
-112	51.27
-103.15	53.1
-92.77	50.66
-79.65	47
-62.87	46.08
-44.25	48.83
-28.99	52.8
-20.75	53.71
-18.92	47.3
-19.23	33.26
-16.48	15.56
-9.77	-1.22
-3.36	-13.12
-0.31	-19.53
0.92	-20.45
3.66	-16.48
8.85	-10.07
13.73	-6.41
14.34	-8.54
8.85	-16.78
1.22	-26.86
-2.44	-34.18
0.31	-36.93
6.1	-36.62
9.16	-36.32
6.71	-36.93
-0.61	-37.84
-7.02	-38.76
-7.63	-38.15
-1.53	-35.4
6.1	-31.43
11.29	-27.77
10.99	-26.55
5.19	-29.91
-3.36	-36.93
-10.38	-44.25
-13.43	-48.83
-11.9	-48.22
-6.71	-42.42
-1.22	-34.18
1.83	-25.94
1.83	-21.67
1.22	-22.28
-0.31	-27.77
-2.75	-35.4
-7.02	-42.42
-11.9	-45.47
-14.95	-44.25
-14.65	-39.98
-12.51	-35.4
-10.07	-33.26
-9.16	-33.57
-10.68	-36.01
-14.34	-38.45
-18.92	-39.98
-22.58	-39.67
-24.11	-37.84
-22.28	-35.4
-18.31	-32.65
-14.34	-30.52
-12.51	-30.52
-13.12	-32.65
-15.56	-36.62
-17.7	-39.37
-17.09	-39.37
-13.73	-36.32
-10.68	-33.57
-10.38	-32.96
-14.65	-35.1
-19.23	-37.84
-20.45	-37.84
-16.17	-34.79
-9.16	-29.91
-2.75	-25.63
1.22	-22.28
4.58	-18.01
9.16	-9.46
13.43	7.93
16.48	36.32
17.7	72.63
18.31	109.56
21.06	140.38
26.86	161.44
33.87	172.73
41.5	175.78
49.13	172.42
57.07	164.49
64.7	154.72
69.27	146.18
67.75	138.55
60.12	126.95
49.13	108.03
41.5	83.92
43.03	62.26
52.19	48.83
61.95	43.64
60.73	39.06
41.5	28.38
7.63	10.07
-27.47	-10.07
-48.22	-24.41
-47.3	-29.3
-31.74	-28.38
-15.26	-29.3
-9.46	-35.1
-14.04	-43.95
-21.67	-51.57
-24.72	-54.32
-23.19	-53.71
-20.14	-53.71
-18.31	-56.76
-18.62	-62.26
-20.14	-66.53
-22.58	-67.44
-26.55	-64.7
-30.21	-60.73
-30.21	-57.68
-26.86	-57.98
-22.58	-61.65
-21.97	-66.53
-25.94	-70.5
-31.43	-71.41
-33.87	-69.89
-32.65	-66.22
-28.69	-61.65
-23.19	-54.63
-16.17	-42.42
-2.44	-18.31
24.72	23.8
70.5	87.28
135.8	169.07
212.4	262.76
286.56	359.8
344.24	453.19
386.05	530.09
429.69	573.43
499.88	573.43
606.99	537.11
734.86	487.98
841.37	446.17
877.38(R)	407.1
810.85	337.52
648.19	199.28
429.08	-11.29
207.21	-246.58
29.91	-433.04
-81.79	-511.78
-133.97	-473.33
-146.48	-362.24
-137.02	-245.97
-119.63	-171.51
-104.98	-145.87
-98.27	-146.79
-100.71	-149.23
-109.56	-142.21
-118.1	-130.62
-121.15	-122.68
-118.41	-120.85
-111.69	-119.93
-103.45	-115.66
-95.83	-108.03
-90.64	-100.1
-87.89	-93.99
-88.2	-90.64
-90.33	-90.64
-91.86	-92.16
-90.94	-93.69
-86.67	-94.6
-80.26	-94.3
-76.6	-94.6
-80.87	-98.88
-94.6	-107.42
-112	-115.66
-122.38	-115.97
-118.1	-103.15
-99.79	-80.26
-78.43	-57.37
-66.53	-46.08
-68.97	-48.52
-79.35	-56.76
-87.28	-61.65
-87.28	-59.81
-81.48	-55.54
-76.6	-54.63
-76.29	-57.98
-78.13	-61.95
-77.51	-62.56
-72.94	-59.2
-68.97	-55.24
-71.11	-53.1
-79.65	-52.8
-90.33	-51.57
-96.13	-47.3
-93.99	-41.81
-87.89	-37.54
-83.92	-36.93
-84.53	-38.15
-86.67	-37.54
-86.06	-33.26
-81.18	-26.55
-75.99	-21.67
-75.38	-21.06
-80.87	-24.41
-89.11	-28.08
-94.3	-29.91
-94.3	-29.3
-92.47	-28.08
-94.3	-26.86
-102.23	-23.8
-114.75	-18.62
-125.43	-11.9
-129.7	-6.1
-128.78	-3.05
-126.95	-2.14
-127.87	0
-130.62	5.19
-132.75	13.12
-133.06	21.36
-133.06	28.38
-133.36	32.04
-135.5	32.65
-136.72	31.74
-133.36	32.96
-122.38	40.28
-103.15	56.15
-79.96	77.21
-58.9	94.6
-45.47	101.01
-38.76	94.6
-33.57	80.87
-25.33	66.83
-14.04	57.68
-3.97	53.41
0.92	50.66
0.31	45.47
-3.05	36.01
-5.49	23.5
-4.27	12.21
1.22	5.8
10.38	4.88
20.45	7.63
27.16	10.99
25.94	11.29
16.48	8.54
3.36	4.27
-7.63	-1.22
-10.99	-6.41
-7.93	-10.99
-3.05	-14.34
-1.83	-17.09
-6.41	-21.36
-12.82	-27.16
-14.95	-31.43
-8.24	-30.52
6.41	-23.5
21.97	-14.65
29.6	-9.77
25.33	-11.29
12.82	-16.48
0	-19.53
-5.49	-18.01
-3.66	-16.17
-0.61	-17.4
-2.75	-22.28
-10.99	-28.08
-21.67	-31.74
-28.38	-33.26
-27.77	-34.79
-21.06	-37.23
-12.82	-39.67
-6.41	-40.28
-3.36	-38.15
-3.05	-34.48
-3.36	-31.13
-3.66	-28.38
-6.71	-27.47
-13.12	-28.38
-20.14	-29.91
-23.5	-30.21
-20.14	-29.91
-12.51	-29.6
-6.71	-30.82
-8.85	-33.57
-18.92	-38.15
-32.04	-43.64
-41.2	-47.91
-42.42	-49.13
-35.71	-45.47
-25.33	-36.62
-16.78	-25.63
-13.43	-17.7
-14.65	-15.56
-17.09	-18.01
-16.17	-20.75
-12.51	-20.75
-8.85	-18.92
-9.46	-18.31
-14.34	-21.67
-18.92	-26.86
-18.92	-29.6
-13.43	-27.47
-4.58	-19.53
4.88	-6.71
13.12	11.29
19.23	36.93
22.89	71.72
23.5	111.69
21.97	147.4
20.75	170.9
24.41	179.75
34.79	178.83
51.88	175.48
71.41	173.03
86.98	169.98
92.77	162.35
84.23	147.71
64.7	126.95
42.42	101.93
27.47	76.29
25.94	54.32
36.01	39.98
48.83	32.65
53.1	28.69
42.42	21.36
18.92	7.63
-7.63	-9.46
-25.94	-23.5
-29.3	-30.21
-20.14	-29.91
-7.63	-28.69
-0.92	-32.35
-2.75	-42.11
-9.77	-53.71
-16.78	-62.87
-20.75	-67.44
-21.97	-68.66
-22.89	-69.89
-25.02	-72.63
-28.38	-75.07
-31.13	-76.29
-31.74	-75.68
-28.99	-74.16
-23.5	-73.55
-18.62	-75.38
-16.48	-78.74
-16.78	-81.48
-17.09	-82.7
-15.87	-80.87
-13.73	-77.82
-14.04	-75.07
-18.62	-73.85
-24.11	-71.72
-25.33	-63.48
-16.17	-40.59
10.38	4.58
57.98	74.77
126.34	165.1
207.21	265.5
286.25	366.52
350.04	460.21
398.25	535.89
447.69	577.39
522.46	574.95
633.24	534.36
764.16	477.6
874.63	426.03
915.83(R)	379.64
853.58	309.45
689.09	177.92
459.59	-22.58
221.56	-252.99
27.47	-444.03
-93.69	-534.06
-146.18	-504.76
-152.59	-392.15
-137.94	-263.67
-120.85	-174.56
-110.47	-139.77
-107.12	-140.69
-105.9	-146.48
-102.84	-140.08
-96.13	-122.99
-89.11	-107.12
-86.36	-99.79
-90.03	-99.18
-96.13	-100.1
-99.18	-99.49
-96.13	-97.35
-89.72	-94.91
-84.53	-93.08
-85.45	-92.47
-92.77	-93.38
-101.32	-94.6
-105.59	-94.6
-101.32	-92.47
-91.55	-88.81
-83.01	-85.45
-81.48	-84.53
-86.36	-85.14
-91.55	-84.84
-90.94	-80.87
-84.53	-73.85
-76.29	-66.53
-72.02	-63.48
-73.85	-65.92
-78.74	-72.33
-83.31	-78.13
-85.75	-79.96
-85.75	-77.51
-84.84	-72.33
-84.23	-67.14
-84.23	-63.48
-84.84	-61.65
-84.84	-61.04
-82.7	-60.73
-79.04	-60.12
-75.07	-58.29
-73.85	-54.32
-75.07	-49.13
-76.9	-43.03
-77.21	-37.23
-76.9	-33.87
-77.82	-34.48
-80.26	-38.15
-84.23	-42.42
-86.67	-43.64
-87.28	-40.59
-86.67	-35.4
-86.36	-32.35
-86.67	-32.35
-86.36	-33.87
-86.06	-33.26
-86.98	-30.21
-90.64	-25.94
-97.05	-22.89
-104.37	-22.58
-112	-22.89
-119.32	-22.58
-127.26	-21.97
-135.5	-20.14
-141.3	-16.48
-143.13	-10.07
-142.52	-1.22
-142.52	7.32
-144.96	12.82
-148.01	14.65
-145.87	15.87
-135.8	21.06
-120.24	31.43
-104.06	44.56
-92.16	56.15
-83.01	64.39
-72.94	69.27
-59.2	71.72
-42.72	72.02
-28.08	68.66
-18.31	61.65
-13.73	51.57
-12.82	39.67
-11.29	28.08
-7.32	18.31
-1.22	10.99
4.58	6.1
7.93	2.14
7.32	-2.75
3.97	-8.54
-0.31	-14.65
-4.58	-18.92
-8.54	-20.75
-10.68	-19.84
-9.16	-17.09
-4.27	-12.51
0	-9.46
0.31	-10.07
-3.97	-14.95
-9.77	-23.19
-11.9	-30.21
-9.16	-32.04
-3.05	-27.77
2.14	-21.36
4.27	-17.7
3.97	-19.84
4.27	-25.94
5.8	-31.13
6.71	-32.04
3.97	-28.69
-3.66	-24.41
-14.34	-22.28
-22.58	-22.58
-23.8	-23.8
-18.62	-25.02
-12.51	-26.86
-10.99	-30.21
-14.34	-35.1
-19.84	-39.06
-21.67	-40.28
-17.4	-37.54
-10.68	-32.65
-7.02	-28.08
-8.85	-25.33
-16.48	-25.94
-25.94	-29.3
-32.65	-34.18
-34.18	-38.15
-31.13	-40.28
-26.55	-40.28
-24.11	-39.37
-24.11	-38.76
-25.94	-39.37
-28.08	-41.5
-29.6	-45.17
-29.3	-49.74
-27.16	-54.02
-22.58	-57.07
-15.87	-57.07
-10.07	-54.02
-8.54	-49.13
-13.43	-43.95
-22.28	-40.28
-30.21	-38.15
-33.26	-36.01
-29.91	-34.18
-24.11	-33.26
-21.67	-34.48
-24.11	-37.84
-28.99	-41.5
-31.43	-43.33
-28.08	-43.03
-18.62	-40.28
-7.02	-36.01
1.83	-29.3
5.49	-19.84
4.58	-7.32
3.36	10.07
5.49	34.48
11.9	66.22
19.23	101.93
23.19	133.97
21.97	153.81
19.53	158.69
21.06	152.89
30.21	145.26
45.78	141.6
61.65	141.3
71.11	138.55
69.27	127.26
57.98	105.9
42.72	79.35
32.65	55.24
33.26	40.89
42.11	36.62
49.44	36.32
44.25	30.52
22.89	14.34
-7.02	-9.16
-32.35	-29.91
-42.72	-39.98
-36.93	-38.15
-22.89	-32.35
-11.29	-31.43
-7.63	-39.06
-11.29	-51.57
-19.53	-61.95
-26.86	-65.92
-32.04	-64.39
-34.48	-61.65
-35.1	-61.04
-35.4	-63.17
-36.32	-66.22
-37.54	-68.66
-37.54	-69.89
-34.48	-70.5
-28.69	-71.41
-22.89	-72.33
-19.84	-72.94
-21.36	-72.63
-25.02	-71.72
-27.47	-70.8
-26.86	-70.19
-24.72	-70.5
-22.58	-69.58
-19.53	-61.95
-9.77	-39.67
14.04	4.88
58.59	72.02
123.29	156.86
198.97	249.02
270.39	340.27
327.15	429.08
369.26	507.81
411.99	559.69
478.21	570.37
582.89	540.77
716.55	490.42
842.59	442.5
910.03(R)	401.31
875.55	339.66
731.51	217.9
511.17	23.19
272.52	-208.44
70.8	-408.63
-61.95	-513
-126.65	-498.66
-143.13	-396.73
-135.5	-272.83
-121.77	-183.72
-112.3	-148.01
-108.64	-147.09
-106.51	-149.84
-102.54	-139.16
-97.05	-118.41
-93.69	-101.01
-95.83	-94.3
-100.4	-94.91
-101.93	-95.21
-97.35	-92.47
-89.42	-90.03
-85.75	-90.33
-88.2	-92.47
-92.77	-93.08
-93.99	-89.11
-89.42	-81.79
-82.4	-75.38
-77.51	-72.94
-77.21	-74.16
-80.26	-75.99
-84.84	-76.6
-88.5	-75.07
-88.81	-71.72
-83.62	-68.05
-73.85	-63.48
-64.39	-57.98
-60.12	-52.8
-62.87	-49.74
-68.97	-48.52
-73.55	-48.22
-73.85	-47.91
-71.41	-47.3
-70.8	-47.3
-73.24	-47.61
-77.51	-48.22
-80.57	-47.61
-80.26	-45.78
-77.21	-43.03
-72.33	-40.89
-67.44	-39.98
-62.56	-39.06
-58.59	-37.54
-56.46	-35.1
-57.07	-32.04
-60.73	-29.6
-68.05	-28.99
-77.21	-29.91
-85.45	-31.43
-90.33	-33.26
-90.33	-34.48
-86.67	-34.79
-82.7	-33.26
-82.7	-30.21
-86.67	-25.02
-93.08	-19.53
-97.96	-14.65
-99.18	-12.21
-98.88	-11.9
-100.4	-13.12
-106.2	-14.95
-114.75	-14.95
-122.38	-12.82
-125.12	-7.63
-123.29	-0.31
-121.15	8.24
-122.68	15.87
-127.87	21.36
-134.58	23.8
-138.55	24.72
-137.63	26.86
-132.75	32.04
-125.73	40.28
-117.19	50.05
-106.51	58.29
-93.08	63.48
-77.51	66.22
-60.73	68.97
-44.86	72.33
-30.21	76.29
-17.09	78.13
-6.41	75.07
1.83	66.83
7.32	56.15
9.77	45.47
10.68	36.62
11.6	28.99
11.6	19.84
9.77	7.63
5.8	-5.19
2.44	-13.73
3.36	-13.12
8.85	-4.58
16.48	6.1
21.06	11.6
19.53	8.85
13.73	0.31
7.93	-8.54
5.8	-13.43
7.63	-13.12
11.29	-10.07
15.26	-7.93
17.4	-9.16
17.09	-13.73
14.34	-20.45
7.02	-27.77
-4.88	-34.48
	
