30.21	150.45
23.8	162.05
23.19	189.21
26.25	224
28.38	254.52
29.91	273.13
33.87	279.54
43.33	280.15
59.81	280.76
78.74	285.34
91.55	289.61
91.86	286.25
79.65	269.78
61.04	239.26
42.11	197.45
27.47	150.76
15.26	104.37
3.36	63.17
-8.54	30.52
-14.95	9.77
-13.12	0.31
-5.19	-0.31
2.75	2.75
4.58	3.05
-0.92	-2.44
-8.24	-10.99
-11.6	-17.7
-9.46	-20.14
-5.49	-19.53
-5.49	-20.45
-11.6	-26.86
-19.23	-36.32
-22.58	-43.33
-18.92	-45.17
-11.6	-42.11
-5.49	-37.54
-3.97	-34.18
-5.8	-31.74
-7.02	-30.82
-6.1	-31.43
-2.44	-32.35
3.36	-29.6
9.77	-19.53
16.17	-1.53
21.97	21.36
26.86	42.72
33.57	59.2
46.39	72.63
68.05	88.5
100.1	114.44
143.13	152.28
198.36	195.01
265.5	227.05
339.05	229.19
410.16	192.57
469.97	128.78
514.22	60.42
544.13	3.36
564.27	-50.05
575.56(R)	-134.89
573.73	-291.44
550.23	-536.19
501.71	-843.2
433.35	-1154.48
363.46	-1407.78
311.58	-1562.19
290.22	-1611.94
295.72	-1575.62
311.89	-1479.8
319.52	-1351.01
310.06	-1212.16
287.48	-1078.49
260.31	-957.03
234.68	-840.76
209.66	-716.25
180.36	-579.53
146.79	-436.4
112.3	-299.99
78.74	-180.36
43.64	-77.82
0.92	10.99
-50.66	85.75
-101.01	141.6
-135.5	173.95
-146.18	186.16
-137.94	187.38
-126.04	186.16
-120.85	188.6
-123.29	195.31
-127.56	203.86
-128.17	211.79
-126.04	217.59
-125.73	220.95
-130.31	222.17
-136.41	224
-138.24	230.1
-132.75	239.56
-123.29	249.63
-115.36	255.43
-113.53	256.04
-117.19	254.82
-120.24	257.87
-118.41	267.94
-114.75	280.76
-114.75	289.61
-119.93	292.97
-125.43	296.94
-125.43	308.23
-118.1	327.15
-110.17	346.68
-109.25	358.58
-117.49	361.63
-128.78	362.24
-134.58	369.57
-132.45	386.35
-125.43	409.24
-119.32	433.35
-116.58	455.02
-118.41	470.89
-122.07	479.74
-124.21	485.53
-122.38	492.55
-115.97	505.37
-106.51	523.68
-98.57	541.38
-94.3	552.06
-93.38	554.5
-93.99	552.67
-94.6	550.84
-93.38	550.84
-88.2	552.67
-78.74	551.76
-65.61	545.96
-52.19	531.92
-43.33	508.42
-38.15	479.13
-33.26	450.13
-26.25	424.8
-17.7	403.14
-9.77	381.47
-3.66	355.83
0.92	324.71
5.8	291.44
10.38	258.18
11.9	225.83
9.46	194.4
4.58	164.49
-0.92	136.41
-4.27	111.08
-4.88	89.42
-3.36	70.5
-1.22	54.32
-0.92	38.76
-4.58	23.8
-11.29	9.16
-18.62	-3.97
-23.19	-16.17
-23.8	-27.16
-21.97	-36.62
-21.06	-43.64
-22.58	-47
-25.63	-46.39
-28.38	-43.64
-28.69	-39.67
-24.72	-33.26
-18.92	-25.63
-14.95	-19.23
-16.17	-17.4
-21.97	-21.36
-28.69	-27.16
-30.21	-27.77
-25.63	-19.84
-18.92	-7.32
-17.4	1.53
-25.63	1.53
-39.37	-5.49
-49.13	-10.68
-47	-7.32
-31.74	5.49
-11.6	22.58
0.61	35.4
-1.83	39.37
-15.56	35.71
-29.6	29.6
-35.1	26.25
-30.21	28.08
-20.14	34.48
-11.6	44.25
-8.24	56.76
-9.46	72.02
-13.73	88.2
-17.4	102.84
-18.92	111.39
-17.4	112
-13.43	106.2
-7.93	101.93
-2.44	109.25
2.75	132.45
8.54	166.93
13.73	201.42
17.7	223.69
19.53	232.85
21.06	235.9
23.8	239.26
28.38	242.61
34.48	239.56
39.37	224.61
40.59	198.36
36.62	167.24
26.55	134.28
12.21	100.1
-2.44	65.31
-13.73	31.13
-18.92	0
-19.84	-27.16
-21.06	-52.8
-25.02	-74.46
-29.91	-87.28
-33.26	-88.5
-32.96	-80.26
-29.91	-72.33
-28.99	-73.85
-30.82	-86.98
-32.35	-104.06
-29.6	-115.36
-22.58	-117.19
-16.78	-112.92
-16.17	-108.34
-20.75	-107.42
-25.94	-108.03
-27.47	-108.03
-25.33	-106.51
-23.19	-106.81
-24.41	-110.17
-27.47	-115.05
-27.77	-117.49
-23.5	-113.53
-15.56	-101.62
-8.54	-83.31
-5.49	-61.65
-3.97	-40.28
1.83	-21.97
16.78	-6.1
41.81	12.51
73.55	42.42
110.78	87.89
155.03	140.38
208.74	179.44
270.69	181.27
332.64	133.36
386.66	47.91
429.99	-43.64
466	-115.66
497.44	-170.59
520.02	-240.78
524.90(R)	-372.62
505.37	-593.57
462.65	-887.45
404.97	-1201.78
345.15	-1471.25
296.94	-1647.64
270.39	-1715.7
266.72	-1693.73
277.1	-1612.85
286.87	-1500.24
284.12	-1374.21
269.17	-1245.42
250.85	-1119.38
234.68	-997.92
216.98	-875.24
190.43	-743.1
151.37	-600.28
106.2	-455.02
64.7	-318.6
31.74	-197.45
3.05	-90.94
-30.21	0
-70.5	69.27
-110.47	109.56
-139.77	122.38
-152.89	120.54
-152.89	119.93
-148.32	128.48
-145.57	143.74
-144.65	157.78
-144.35	165.1
-143.13	167.24
-140.99	169.07
-138.55	173.03
-135.5	179.14
-132.14	184.94
-130.62	187.68
-133.97	187.07
-141.3	186.46
-147.4	190.12
-148.32	198.97
-143.43	210.27
-136.72	220.34
-134.58	226.44
-139.16	228.27
-146.18	229.49
-148.01	235.29
-142.82	247.19
-133.97	263.06
-128.48	279.24
-130	291.75
-137.02	299.68
-143.43	307.01
-144.35	320.13
-141.3	339.66
-138.55	360.72
-139.16	377.2
-143.13	385.13
-148.32	386.96
-150.76	389.71
-148.93	399.78
-143.74	418.09
-138.24	440.06
-133.97	458.37
-131.84	469.67
-130.31	474.85
-126.34	477.91
-119.02	481.57
-109.56	484.01
-100.4	481.26
-93.38	471.19
-90.03	455.93
-88.5	440.98
-86.06	428.77
-80.87	418.09
-71.41	404.66
-56.46	388.79
-38.15	372.01
-19.23	354.61
-5.49	332.95
-0.61	302.12
-3.97	262.15
-9.77	219.42
-10.99	183.11
-6.71	156.25
-1.22	134.58
0	111.69
-4.27	85.75
-9.16	61.95
-11.29	44.56
-10.68	34.18
-10.68	25.02
-13.12	11.6
-18.31	-7.02
-23.8	-26.25
-29.6	-41.5
-35.71	-50.66
-40.89	-56.46
-43.64	-61.95
-43.03	-69.27
-39.67	-75.38
-37.54	-77.51
-38.15	-76.29
-39.06	-72.02
-36.62	-66.22
-30.82	-61.34
-25.63	-59.2
-25.02	-60.73
-28.99	-63.78
-33.57	-64.39
-35.4	-58.59
-34.48	-47
-34.48	-36.93
-38.45	-34.18
-43.95	-38.15
-46.39	-42.42
-44.25	-40.89
-39.37	-30.82
-35.1	-16.48
-31.43	-3.36
-28.08	4.88
-27.47	7.02
-31.43	4.27
-38.76	1.53
-43.64	3.97
-40.59	11.9
-30.21	21.06
-21.06	25.02
-20.14	23.19
-26.25	22.28
-32.04	28.38
-31.74	41.81
-25.63	56.76
-19.23	66.53
-17.09	70.5
-15.56	75.07
-11.9	85.75
-5.49	101.01
0	116.27
0.31	129.7
-6.41	142.21
-16.17	157.47
-21.97	177.92
-19.53	199.58
-8.85	216.37
6.71	224.61
23.19	226.14
36.93	223.39
45.78	218.51
48.83	209.35
44.25	191.96
31.43	162.66
12.51	121.46
-7.02	73.55
-21.97	27.16
-29.3	-10.38
-29.6	-35.1
-26.55	-48.52
-23.5	-56.15
-22.58	-64.09
-24.11	-74.16
-26.86	-84.84
-30.21	-93.99
-34.48	-99.79
-39.37	-104.06
-42.72	-107.12
-43.03	-109.86
-40.89	-112.3
-38.76	-115.36
-38.15	-118.71
-40.89	-122.99
-44.86	-126.95
-47.3	-128.48
-46.39	-126.95
-42.72	-123.29
-37.54	-118.71
-32.35	-114.44
-28.69	-112.3
-28.69	-112.61
-31.43	-112.92
-33.57	-107.42
-28.38	-91.55
-14.04	-65.61
7.93	-36.32
30.82	-11.29
49.74	6.1
66.22	21.67
88.2	46.69
124.51	85.14
177.61	125.73
240.48	145.57
303.04	126.04
357.36	65.92
403.14	-14.04
441.59	-87.59
470.89	-148.32
485.84(R)	-216.98
483.09	-331.12
463.87	-521.55
431.52	-785.52
390.01	-1083.68
340.58	-1361.08
289	-1569.21
248.72	-1681.52
234.07	-1700.13
246.28	-1644.9
267.94	-1542.05
278.02	-1415.71
266.42	-1283.57
239.56	-1156.92
213.93	-1036.38
197.45	-914.31
182.19	-783.69
156.56	-642.4
118.1	-495.91
76.29	-353.09
37.54	-223.39
1.83	-111.69
-38.15	-18.62
-83.31	53.71
-122.99	104.98
-142.82	136.41
-140.38	152.59
-126.95	158.39
-119.32	156.25
-125.12	150.15
-137.33	144.65
-145.26	144.35
-145.57	150.45
-142.21	161.13
-140.69	172.73
-143.74	180.97
-148.01	185.85
-148.62	189.82
-144.65	193.79
-138.24	198.67
-132.75	204.47
-129.7	211.49
-130.92	219.12
-135.19	225.22
-140.08	227.66
-142.82	226.44
-142.21	224.61
-138.24	227.36
-131.53	239.26
-123.6	260.01
-116.27	283.2
-112.92	301.21
-117.49	310.67
-129.7	314.94
-143.13	318.6
-148.93	325.62
-142.82	336
-127.87	348.51
-113.53	363.46
-108.95	379.94
-115.97	393.98
-131.23	401.31
-144.96	402.22
-149.54	402.83
-141.91	411.07
-126.04	430.3
-109.25	454.1
-99.79	472.11
-99.18	478.21
-103.15	473.94
-104.06	466
-97.35	459.9
-82.09	458.07
-64.09	458.98
-49.13	458.07
-39.98	452.27
-36.01	438.23
-33.26	415.95
-27.47	386.96
-18.92	355.53
-10.07	323.79
-3.66	292.66
-0.61	262.45
1.83	233.15
5.19	205.99
7.63	179.75
5.19	153.2
-3.66	125.12
-16.17	97.96
-23.8	75.07
-23.19	57.98
-16.78	43.95
-12.51	29.3
-15.56	11.6
-26.25	-9.16
-38.76	-29.3
-46.39	-43.95
-45.17	-50.66
-38.15	-50.96
-30.82	-49.13
-28.69	-50.05
-34.18	-55.24
-43.03	-61.65
-48.83	-63.48
-47.61	-59.2
-41.5	-53.41
-35.1	-50.96
-31.74	-53.1
-32.65	-56.76
-37.23	-59.81
-43.95	-60.73
-50.05	-59.81
-53.41	-57.98
-53.71	-55.85
-52.8	-53.1
-53.1	-49.74
-54.93	-45.78
-54.93	-39.06
-50.66	-28.38
-42.42	-16.78
-35.71	-9.46
-36.32	-8.24
-43.95	-11.9
-53.1	-14.34
-55.54	-8.85
-47	6.1
-31.43	26.25
-18.92	41.5
-17.7	44.86
-27.16	36.93
-39.37	25.63
-46.08	19.23
-43.03	21.67
-33.87	31.43
-25.94	42.72
-23.19	53.1
-25.33	61.65
-30.21	68.05
-31.74	73.24
-26.25	78.43
-14.04	85.75
-0.31	97.35
8.24	114.44
7.63	136.41
-1.22	159.61
-12.82	178.22
-21.06	188.9
-20.75	192.57
-11.9	193.48
4.88	197.45
25.94	206.91
44.56	214.84
52.8	212.1
47.61	194.7
30.82	164.18
9.16	125.73
-10.07	84.53
-22.28	41.5
-28.38	-1.53
-30.82	-39.06
-30.82	-62.56
-29.91	-68.97
-28.69	-63.78
-28.99	-58.59
-32.35	-63.17
-37.54	-77.82
-42.72	-95.52
-45.17	-107.42
-44.56	-110.17
-42.11	-106.51
-41.2	-103.15
-43.33	-103.45
-46.69	-106.81
-47.61	-109.86
-42.42	-108.95
-33.57	-104.37
-27.47	-99.79
-27.47	-98.27
-33.26	-100.1
-39.37	-104.06
-41.2	-106.51
-36.62	-105.59
-28.69	-99.49
-21.06	-87.28
-15.26	-70.5
-10.68	-52.19
-5.8	-34.48
3.05	-18.62
20.45	-0.92
48.83	24.41
87.28	61.04
131.84	104.98
180.36	143.13
230.71	156.56
280.46	131.53
328.67	68.66
373.23	-11.6
413.82	-82.7
448.61	-134.28
473.02	-184.63
480.35(R)	-275.27
465.7	-446.47
431.52	-704.04
385.13	-1008
335.39	-1295.17
289	-1509.7
253.3	-1625.98
236.21	-1651.61
239.56	-1610.72
255.13	-1524.96
269.17	-1410.83
269.47	-1281.74
254.21	-1150.82
232.24	-1026
209.35	-905.46
184.33	-780.33
151.67	-645.75
112.3	-504.46
73.24	-365.6
40.59	-238.95
10.99	-127.87
-23.8	-32.96
-67.44	43.95
-112.61	97.35
-144.65	126.34
-154.11	138.85
-144.96	145.57
-131.23	152.59
-124.82	160.83
-129.39	166.93
-139.47	169.37
-146.18	171.51
-146.18	176.39
-140.99	183.72
-134.58	190.43
-130.62	194.09
-129.7	196.53
-131.84	199.28
-136.72	202.94
-142.52	207.52
-145.87	212.4
-144.35	218.51
-138.24	225.22
-132.14	231.02
-130.62	234.99
-133.36	238.65
-135.8	245.36
-134.58	256.04
-130.31	268.55
-126.65	279.54
-125.73	287.78
-127.26	294.49
-128.78	303.34
-129.7	315.55
-130	329.9
-130	344.54
-128.48	357.97
-123.9	370.48
-120.24	379.94
-120.24	385.74
-123.6	391.54
-126.65	401.92
-125.73	419.01
-121.77	437.93
-116.88	451.97
-111.69	459.59
-103.76	464.78
-91.55	473.33
-77.51	485.53
-67.44	495
-63.48	495.91
-64.09	486.45
-63.17	472.72
-58.29	458.68
-50.66	445.86
-42.42	433.65
-33.26	420.84
-23.8	405.27
-13.73	384.52
-3.36	357.36
5.49	326.54
11.29	294.8
14.34	266.11
13.73	238.34
10.68	206.6
7.63	170.29
6.71	134.89
7.32	108.34
7.32	93.99
4.27	86.67
-3.66	76.6
-12.82	57.68
-18.92	32.65
-19.23	11.29
-16.17	0
-12.51	-3.05
-12.51	-5.8
-18.01	-15.56
-28.08	-32.65
-40.59	-50.66
-51.57	-62.87
-56.46	-65.61
-52.8	-59.51
-40.28	-48.22
-25.33	-37.54
-15.87	-32.35
-17.09	-35.1
-26.86	-43.95
-38.15	-53.1
-44.25	-57.37
-43.03	-55.54
-37.23	-48.22
-34.18	-40.59
-37.23	-35.71
-43.64	-32.35
-48.83	-27.77
-48.83	-20.14
-44.25	-9.77
-39.67	-1.53
-37.84	1.22
-36.93	-0.61
-32.96	-1.53
-25.63	2.75
-19.53	11.29
-20.45	20.14
-28.99	25.02
-39.06	26.55
-44.56	25.94
-46.39	23.8
-47	19.84
-48.52	16.48
-47.91	17.4
-40.89	23.19
-26.86	32.96
-12.51	41.2
-6.1	44.56
-9.77	46.39
-17.4	51.27
-21.67	61.95
-18.62	75.68
-10.07	88.5
-1.22	97.96
3.97	103.45
4.88	108.64
3.36	117.49
0.92	132.75
-2.14	153.2
-4.58	175.48
-5.19	192.87
-3.36	200.81
2.44	201.72
13.12	202.33
29.6	206.3
47	210.88
59.51	210.88
59.81	200.2
46.39	175.17
25.94	137.63
5.49	91.25
-10.68	40.59
-23.8	-5.8
-35.4	-39.67
-43.64	-57.68
-44.86	-63.48
-37.54	-62.87
-27.16	-63.17
-21.97	-67.75
-27.47	-76.29
-40.28	-86.06
-51.88	-93.38
-55.24	-97.05
-48.83	-97.05
-37.54	-94.3
-28.38	-91.55
-25.94	-90.94
-29.6	-92.77
-35.71	-97.35
-41.2	-103.45
-44.56	-110.17
-44.25	-114.75
-40.89	-114.75
-36.32	-110.47
-32.04	-103.76
-28.69	-95.83
-24.11	-85.14
-15.56	-70.8
-2.44	-52.8
12.51	-34.79
24.72	-22.28
33.87	-15.26
45.17	-6.1
67.44	15.87
104.68	55.54
154.11	104.37
210.57	141.6
267.64	145.87
321.66	109.56
371.4	42.42
415.95	-31.74
455.02	-90.64
487.37	-133.67
509.34	-183.72
515.14(R)	-278.32
500.18	-448.61
462.65	-694.89
405.88	-983.58
338.44	-1262.51
273.44	-1485.29
227.97	-1623.84
215.45	-1672.97
235.6	-1643.07
269.78	-1551.82
292.05	-1425.48
285.34	-1289.67
253.6	-1162.11
214.84	-1044.31
184.94	-923.46
165.71	-784
148.93	-625.92
126.65	-464.17
97.35	-318.6
60.12	-201.72
14.65	-110.17
-37.23	-32.65
-87.89	38.45
-126.34	98.88
-143.43	140.99
-140.69	161.74
-129.39	166.32
-122.07	164.79
-125.12	165.1
-138.24	168.46
-154.72	170.59
-166.02	170.59
-166.63	171.2
-156.56	177.31
-141.3	191.04
-126.95	208.74
-119.63	222.17
-120.85	225.52
-127.56	219.42
-135.8	210.88
-142.21	207.52
-145.87	211.79
-144.96	221.86
-137.63	234.99
-126.34	248.41
-113.83	261.23
-106.2	273.13
-107.73	281.07
-116.58	284.42
-126.04	285.95
-129.7	289.31
-127.87	296.63
-126.04	306.4
-130.31	315.25
-140.38	321.35
-149.23	328.37
-149.84	339.66
-141.3	357.06
-128.48	378.42
-118.1	399.48
-114.14	416.87
-114.75	430.6
-114.75	443.12
-111.08	456.85
-102.84	471.8
-92.16	486.76
-82.7	497.13
-78.13	499.27
-78.43	493.77
-79.65	484.92
-76.6	477.29
-66.83	472.72
-52.49	470.28
-36.93	466.92
-25.02	460.21
-17.7	449.83
-14.04	433.04
-14.04	405.58
-16.17	367.43
-16.48	324.71
-10.68	289.31
1.22	267.94
14.65	256.35
21.36	241.39
15.87	211.49
1.22	167.54
-12.51	121.77
-15.56	88.5
-7.32	72.94
4.88	68.97
11.6	64.7
7.63	51.88
-5.19	30.21
-18.31	7.93
-26.25	-7.02
-27.47	-13.43
-25.33	-16.48
-22.58	-21.06
-21.06	-27.77
-21.06	-33.26
-23.8	-35.1
-31.43	-36.01
-43.03	-39.98
-53.41	-47.61
-56.46	-54.63
-50.05	-56.76
-39.06	-52.49
-29.91	-45.17
-27.47	-39.37
-30.52	-38.76
-36.32	-42.11
-40.28	-45.78
-41.81	-44.25
-42.42	-37.23
-41.81	-26.25
-40.28	-16.17
-39.37	-10.68
-39.06	-9.16
-39.37	-7.63
-40.28	-4.88
-40.89	-1.22
-37.54	4.27
-31.43	10.99
-27.77	16.78
-29.6	21.36
-34.79	25.33
-39.98	28.69
-40.28	32.35
-35.4	35.4
-32.04	34.48
-35.1	29.3
-43.03	24.41
-47.91	25.63
-44.56	33.57
-34.18	43.64
-23.8	49.74
-20.45	53.1
-22.89	59.2
-26.25	72.33
-25.63	90.03
-19.53	104.68
-11.29	108.95
-4.88	105.29
-0.92	103.15
1.22	112.3
2.44	135.8
4.27	167.85
8.85	198.97
16.17	221.25
25.63	232.85
35.4	236.51
43.03	234.99
46.69	228.27
46.08	215.45
43.03	198.36
38.76	181.88
33.57	166.32
25.63	146.18
13.73	114.75
-0.92	72.02
-13.12	26.25
-19.84	-10.07
-21.06	-30.52
-21.36	-39.98
-23.8	-46.08
-27.77	-52.49
-31.74	-58.59
-34.48	-61.95
-37.23	-62.26
-41.2	-62.26
-44.86	-62.87
-45.47	-65.61
-43.33	-71.41
-39.06	-79.35
-33.57	-85.75
-28.08	-88.5
-23.5	-86.36
-20.14	-80.87
-18.92	-75.68
-19.84	-72.94
-22.58	-72.02
-26.86	-72.63
-33.26	-77.21
-39.67	-84.23
-41.2	-89.11
-32.65	-83.31
-13.12	-62.56
10.38	-33.26
28.38	-7.63
37.54	6.1
42.42	10.07
54.63	16.17
85.45	39.98
136.11	83.31
196.84	130.31
255.74	155.94
304.87	140.69
344.54	82.09
383	2.14
427.55	-66.53
476.07	-109.56
517.88	-142.21
538.64(R)	-203.55
528.56	-336.91
489.81	-557.56
433.04	-838.93
370.79	-1127.32
311.89	-1369.93
264.59	-1535.34
236.51	-1618.04
233.46	-1628.72
251.77	-1578.67
278.32	-1479.19
294.19	-1346.44
287.78	-1202.39
261.23	-1066.89
224.3	-942.99
186.46	-818.18
153.2	-678.1
124.51	-522.77
99.18	-368.35
72.33	-234.68
37.54	-130
-8.54	-47.3
-61.34	24.11
-109.25	85.45
-137.94	131.53
-144.35	158.08
-137.63	166.63
-130	166.63
-128.17	166.93
-130.62	172.73
-132.14	181.88
-131.53	190.12
-130.92	194.4
-133.06	194.7
-136.72	193.48
-138.85	194.09
-139.16	197.14
-138.24	201.42
-137.33	205.38
-135.5	209.66
-133.06	214.84
-131.53	221.56
-132.14	229.8
-134.28	238.04
-134.58	245.97
-130.31	252.38
-123.9	257.87
-118.71	263.98
-117.8	272.52
-120.85	282.9
-125.12	292.97
-128.48	301.21
-129.7	307.92
-129.39	314.64
-129.09	322.27
-129.09	332.03
-127.87	346.07
-123.9	364.38
-117.19	386.66
-109.86	408.02
-107.73	420.53
-112	422.06
-117.49	420.84
-117.49	427.25
-110.17	444.03
-100.71	465.09
-94.3	481.26
-92.77	486.45
-90.33	484.62
-82.4	483.7
-68.66	486.45
-54.32	490.11
-45.17	488.89
-41.81	481.57
-39.37	468.14
-33.87	450.74
-26.25	429.99
-17.7	405.88
-10.07	379.33
-3.66	351.56
2.44	324.4
9.77	297.85
17.09	271.61
23.19	245.67
26.55	219.42
24.72	191.65
16.48	162.05
4.27	132.45
-7.32	105.9
-11.9	84.23
-8.24	67.44
-0.92	53.1
1.83	38.45
-4.88	22.89
-18.62	7.63
-32.35	-5.8
-40.28	-17.4
-41.2	-27.77
-38.45	-35.1
-34.18	-38.45
-30.21	-37.54
-25.63	-34.48
-22.58	-33.57
-22.89	-37.54
-27.77	-46.39
-34.79	-56.76
-40.59	-64.39
-42.72	-65.92
-42.11	-61.04
-42.42	-54.32
-45.78	-49.13
-49.74	-46.69
-51.88	-46.08
-49.44	-44.25
-43.03	-38.76
-37.54	-31.74
-36.32	-26.86
-37.54	-24.11
-38.45	-21.06
-36.62	-14.95
-31.74	-5.19
-28.08	5.19
-28.99	13.43
-34.18	18.62
-42.11	21.97
-49.74	24.72
-52.49	28.08
-47.61	32.35
-35.71	36.32
-22.28	39.37
-13.73	42.11
-14.95	43.03
-23.8	41.5
-33.26	39.37
-37.84	37.23
-35.1	36.93
-26.55	41.81
-16.78	52.19
-9.16	66.22
-5.8	80.87
-5.19	92.47
-5.19	100.1
-3.05	104.37
1.22	108.95
6.71	118.41
10.68	135.19
11.6	157.47
7.93	179.75
0.61	195.31
-6.41	203.86
-6.1	209.05
6.1	216.37
28.99	226.14
53.71	233.15
69.27	230.71
67.44	215.45
50.05	189.51
27.77	156.86
9.77	120.85
-1.53	82.09
-8.85	43.03
-16.17	7.32
-24.72	-20.45
-29.91	-37.54
-28.69	-46.69
-23.8	-52.8
-21.06	-60.12
-22.28	-67.14
-25.94	-71.72
-29.6	-72.02
-32.35	-70.5
-34.48	-70.8
-36.01	-74.46
-34.79	-79.35
-30.21	-83.01
-26.25	-85.45
-27.47	-89.11
-33.57	-93.99
-39.67	-97.96
-39.06	-97.96
-31.74	-93.99
-25.02	-90.03
-24.11	-88.5
-28.69	-89.42
-32.96	-88.81
-31.74	-84.23
-23.8	-75.68
-12.82	-62.56
-1.83	-45.78
9.77	-26.25
26.25	-5.19
52.49	17.4
88.5	43.03
131.23	74.16
178.22	109.86
227.66	139.16
278.02	142.21
327.76	105.29
376.59	33.87
422.97	-46.39
465.39	-110.47
501.4	-154.72
524.9	-205.69
527.65(R)	-307.92
505.07	-493.16
459.29	-754.39
397.95	-1047.06
332.64	-1314.09
276.79	-1510.62
242.31	-1618.35
234.99	-1646.12
249.33	-1609.8
270.39	-1522.22
280.76	-1398.62
272.52	-1257.32
249.63	-1117.55
221.56	-988.77
194.09	-863.65
167.54	-727.84
138.55	-576.78
105.59	-423.28
69.58	-287.48
31.43	-178.22
-7.63	-88.5
-48.22	-6.1
-85.75	70.5
-114.75	130.62
-131.53	163.27
-136.11	170.9
-131.53	168.15
-125.43	168.76
-123.29	176.39
-126.04	185.85
-132.45	191.65
-138.24	191.96
-141.3	191.96
-140.69	194.7
-137.94	201.11
-133.67	209.35
-129.39	215.76
-128.17	219.12
-129.7	221.25
-130.92	224.91
-130.62	231.32
-127.87	238.95
-124.51	247.19
-122.99	255.13
-123.6	263.37
-123.6	271.61
-121.77	279.24
-118.71	285.95
-117.8	292.66
-121.15	300.29
-128.48	308.53
-137.33	315.55
-144.35	321.66
-145.57	330.81
-141.6	346.37
-135.8	367.74
-132.14	389.4
-132.14	405.88
-132.75	416.56
-131.53	426.33
-127.87	438.23
-122.38	452.88
-116.27	466.61
-111.08	477.29
-107.42	485.23
-105.29	492.25
-104.68	498.96
-101.01	506.29
-90.94	515.75
-76.29	526.43
-62.87	534.67
-57.68	532.84
-61.34	517.58
-66.83	493.16
-65	470.28
-51.57	455.32
-33.26	444.34
-19.23	426.33
-14.65	394.9
-18.62	351.87
-23.5	308.84
-20.45	277.71
-7.93	260.62
9.46	249.33
23.19	233.76
24.72	206.3
12.21	169.68
-7.02	132.45
-21.97	102.84
-26.55	83.31
-23.8	69.89
-21.36	56.76
-23.5	41.81
-29.91	25.02
-36.32	9.77
-39.06	-1.83
-38.76	-9.46
-37.84	-14.34
-37.23	-17.7
-36.01	-20.45
-35.4	-23.5
-35.4	-26.86
-36.01	-29.6
-38.15	-32.65
-41.5	-35.4
-44.25	-37.54
-45.78	-36.93
-46.39	-33.87
-47.61	-30.21
-51.27	-29.3
-56.46	-31.43
-60.12	-33.57
-57.37	-31.13
-47	-21.67
-34.48	-9.16
-28.08	-0.92
-32.35	0
-44.86	-4.58
-57.37	-7.63
-62.26	-4.88
-58.59	4.27
-50.35	15.26
-42.72	25.33
-38.15	34.79
-34.79	44.56
-31.43	54.32
-29.91	60.12
-32.96	58.59
-38.76	51.57
-42.42	45.47
-40.89	44.56
-34.18	48.22
-28.08	53.71
-28.69	55.54
-35.71	52.49
-44.25	46.08
-48.83	39.98
-47.3	37.23
-40.59	40.59
-32.65	51.88
-25.63	68.66
-20.14	85.75
-14.04	97.96
-7.02	104.06
-0.31	106.81
4.58	111.69
5.8	124.21
3.05	144.35
-1.83	169.07
-6.1	192.87
-7.02	210.88
-4.27	221.56
1.22	225.52
8.54	224
17.7	220.03
29.91	217.29
41.81	215.76
47	212.4
40.28	199.89
21.06	170.29
-2.14	124.51
-20.14	70.8
-30.21	19.53
-35.4	-19.84
-38.76	-43.03
-40.28	-51.88
-39.37	-51.27
-35.1	-46.08
-30.82	-41.81
-30.82	-42.11
-34.18	-47.3
-37.84	-55.24
-40.89	-64.39
-42.42	-71.41
-42.42	-75.38
-42.72	-78.13
-43.64	-81.18
-45.47	-86.06
-47.3	-91.25
-47.3	-93.99
-44.56	-93.08
-39.67	-89.42
-35.71	-85.45
-35.71	-84.53
-38.45	-86.67
-39.06	-88.5
-35.1	-86.67
-27.16	-79.35
-17.7	-65.92
-9.46	-49.74
-2.14	-33.57
7.32	-18.01
22.89	-1.22
47.3	21.67
81.79	54.32
126.04	97.96
177.61	143.13
231.02	170.59
282.29	162.05
331.42	112
379.03	36.01
424.8	-38.76
463.87	-95.83
491.03	-144.35
500.79(R)	-217.9
492.86	-354
468.75	-570.07
428.77	-848.08
374.76	-1139.83
312.5	-1391.91
256.04	-1563.11
221.86	-1637.88
218.51	-1625.37
238.04	-1546.94
260.62	-1427.92
269.78	-1291.81
260.93	-1158.45
240.17	-1036.07
215.76	-920.72
190.12	-798.65
160.22	-661.32
126.34	-514.22
91.25	-371.7
58.29	-246.89
24.11	-142.82
-15.26	-51.57
-59.51	33.26
-99.49	106.51
-125.43	156.56
-134.58	177.61
-133.06	174.26
-130.31	161.44
-131.23	154.11
-134.89	158.39
-137.94	168.46
-139.47	177.61
-140.38	182.5
-141.3	186.16
-141.3	192.26
-140.69	200.2
-139.47	205.38
-136.41	205.99
-131.84	204.77
-126.65	206.6
-123.9	214.23
-127.56	223.08
-134.58	230.1
-139.47	234.68
-137.02	240.17
-130	247.5
-125.12	254.52
-129.09	257.57
-139.47	256.35
-145.26	258.18
-138.85	270.08
-123.6	291.44
-111.69	313.42
-114.14	326.23
-130.31	329.28
-147.71	330.81
-154.11	339.66
-148.62	355.53
-140.99	370.79
-137.33	380.86
-135.8	389.71
-129.7	404.66
-115.97	427.86
-100.71	451.97
-94.3	466
-99.49	467.22
-108.34	462.65
-110.47	461.12
-101.93	466.61
-87.28	475.46
-75.68	482.18
-72.02	481.57
-73.55	475.46
-72.02	467.22
-62.56	458.98
-47.61	447.39
-32.65	429.69
-20.75	407.1
-10.38	383
-0.31	361.02
7.32	339.66
7.93	314.33
1.53	282.29
-4.27	247.5
-2.75	214.54
3.97	185.24
7.63	156.56
3.05	127.87
-7.93	102.23
-17.09	83.92
-18.92	74.16
-15.87	67.75
-14.04	58.29
-16.17	44.56
-20.75	28.69
-26.25	13.73
-31.43	1.53
-36.32	-7.02
-39.98	-12.82
-41.5	-16.17
-39.67	-20.14
-36.32	-25.63
-33.26	-31.74
-31.74	-35.1
-32.65	-34.18
-36.32	-31.13
-40.28	-28.69
-40.89	-26.25
-36.62	-20.75
-29.91	-12.21
-26.86	-4.58
-30.52	-2.75
-39.67	-7.63
-48.83	-14.04
-51.88	-14.95
-47	-8.24
-37.23	3.97
-27.47	15.87
-21.97	23.19
-22.58	24.41
-28.69	21.67
-38.15	16.78
-47.91	12.21
-54.02	12.82
-53.1	21.36
-45.47	37.54
-34.79	54.93
-28.99	64.09
-31.13	59.51
-38.76	47.61
-43.64	39.98
-41.81	42.72
-35.71	53.71
-31.74	63.17
-32.35	65.31
-34.18	61.04
-32.96	56.46
-27.47	55.85
-21.36	59.81
-19.53	66.22
-22.58	74.16
-26.55	82.4
-27.77	89.11
-25.02	93.08
-18.62	94.3
-10.68	96.13
-1.83	104.68
6.71	124.82
13.43	155.64
16.78	190.43
14.65	218.2
8.85	232.24
5.19	234.68
8.24	233.46
17.7	233.76
28.99	234.99
36.32	232.24
38.15	221.56
34.48	203.55
27.77	178.83
18.62	148.32
6.71	110.78
-6.71	67.75
-19.84	25.33
-32.04	-10.07
-42.11	-34.48
-46.08	-46.39
-42.72	-50.05
-33.87	-50.05
-25.33	-52.19
-23.5	-59.2
-28.69	-68.05
-36.62	-74.46
-41.81	-74.77
-42.11	-69.89
-40.89	-65
-40.59	-63.17
-42.11	-66.22
-44.86	-72.94
-46.69	-81.48
-45.47	-88.81
-41.5	-91.86
-36.01	-89.42
-30.52	-83.01
-26.25	-76.6
-24.11	-72.63
-23.19	-71.11
-22.28	-68.05
-21.06	-59.81
-18.92	-47.61
-16.17	-35.71
-11.29	-27.47
-0.61	-22.28
20.14	-12.21
55.24	11.9
102.84	54.02
157.17	106.51
212.4	151.06
263.37	166.02
309.75	138.85
353.39	73.24
397.03	-8.54
440.67	-79.65
481.87	-128.48
513.31	-170.59
526.73(R)	-245.36
516.05	-390.93
481.26	-619.51
427.55	-900.88
363.16	-1181.95
298.77	-1410.83
248.11	-1557.01
224	-1615.91
229.49	-1600.65
251.16	-1528.93
269.78	-1419.07
270.08	-1289.67
251.77	-1158.14
225.52	-1032.1
199.58	-908.2
173.95	-776.37
144.65	-631.1
112.92	-478.21
83.01	-331.42
55.24	-203.55
22.58	-98.88
-21.97	-12.21
-75.38	61.95
-124.51	120.54
-154.11	158.08
-159.3	173.95
-150.15	174.56
-139.47	171.81
-135.5	175.78
-140.38	185.85
-151.06	193.48
-163.27	193.18
-169.98	188.9
-165.41	189.21
-149.84	200.5
-130.62	219.12
-120.24	234.68
-123.9	239.26
-134.89	235.9
-142.21	234.07
-140.99	238.95
-135.5	248.11
-133.06	254.52
-134.58	256.35
-136.11	257.87
-135.19	263.37
-134.28	272.52
-137.02	280.76
-144.35	285.34
-151.98	289
-155.03	295.72
-153.5	307.31
-151.06	320.74
-149.54	333.56
-148.62	344.54
-146.79	354.61
-143.43	365.3
-139.47	376.59
-137.94	387.57
-138.55	397.34
-140.08	407.1
-139.47	418.7
-136.41	431.82
-130.92	446.78
-124.51	463.87
-118.71	480.04
-113.22	492.25
-108.34	498.35
-103.15	497.74
-94.91	495.3
-81.18	496.83
-64.09	502.93
-50.05	508.12
-43.95	504.15
-45.47	487.37
-47.61	462.65
-43.95	435.79
-34.48	410.46
-23.5	385.44
-14.34	358.58
-8.24	328.98
-5.49	297.55
-5.8	267.03  
-115.05	379.64
-106.81	392.46
-101.01	403.14
-96.44	412.9
-91.25	422.97
-85.45	433.04
-80.57	442.2
-75.99	450.44
-69.89	458.07
-59.81	465.09
-45.78	471.5
-31.13	476.07
-20.14	476.68
-13.43	473.02
-9.77	465.39
-6.41	454.41
-3.97	438.84
-2.75	418.7
-1.22	394.9
1.22	368.35
5.19	340.58
9.16	312.81
10.68	285.03
8.85	257.87
5.49	231.32
1.53	205.69
-3.05	179.75
-9.77	153.2
-18.62	127.56
-26.55	104.68
-31.74	84.84
-33.26	68.66
-32.35	56.46
-30.82	47.91
-31.43	41.5
-35.4	33.57
-42.42	21.97
-50.66	8.24
-57.68	-5.49
-61.65	-15.87
-62.87	-22.89
-62.26	-27.47
-61.34	-30.52
-59.51	-31.13
-56.46	-27.77
-51.88	-20.75
-47.61	-13.43
-46.39	-9.77
-49.13	-11.6
-55.54	-17.09
-61.04	-21.06
-62.87	-20.14
-60.42	-15.56
-56.46	-10.68
-54.02	-7.93
-53.71	-4.88
-53.71	0.61
-53.1	9.46
-52.49	18.01
-54.32	22.28
-57.37	22.89
-60.12	23.8
-60.12	28.99
-57.68	37.84
-54.93	47.61
-54.63	54.02
-57.68	56.46
-62.87	56.46
-67.14	56.76
-67.14	57.37
-61.65	59.2
-52.49	61.34
-44.56	63.48
-42.11	64.39
-45.17	64.09
-49.74	63.48
-50.35	65.31
-45.47	70.5
-36.93	79.65
-29.91	91.25
-28.38	102.23
-31.13	110.78
-32.96	117.19
-30.52	121.15
-24.11	124.51
-16.78	131.53
-11.9	145.57
-10.68	168.15
-9.46	197.14
-5.8	225.52
0	245.06
6.41	252.08
12.21	249.94
17.7	244.75
24.72	240.17
32.35	235.9
37.54	228.27
35.71	213.62
25.63	190.73
9.16	159.61
-8.85	121.77
-24.41	80.87
-35.71	41.2
-43.64	7.63
-48.52	-15.87
-48.52	-28.69
-44.86	-34.48
-40.28	-36.93
-39.37	-39.98
-43.03	-46.08
-48.83	-53.41
-52.19	-60.42
-50.96	-65
-47	-67.75
-44.25	-68.66
-44.25	-69.27
-46.08	-69.27
-47	-68.97
-45.78	-69.27
-43.64	-69.58
-41.81	-69.89
-41.2	-69.89
-40.89	-68.97
-39.67	-68.05
-38.76	-68.66
-39.98	-70.19
-41.2	-69.58
-37.54	-61.04
-24.72	-41.5
-3.66	-14.95
21.06	8.54
43.33	21.06
64.39	24.11
91.86	31.13
133.67	55.24
189.51	94.6
253.6	127.87
315.55	126.95
368.04	76.6
413.21	-8.85
456.24	-95.21
500.18	-156.86
539.25	-198.06
561.83(R)	-252.69
558.17	-361.94
527.95	-544.43
478.21	-781.86
417.18	-1031.19
351.87	-1251.22
290.53	-1416.63
246.89	-1519.78
231.32	-1564.33
242.92	-1554.57
266.11	-1493.23
278.63	-1390.99
268.86	-1265.26
241.39	-1134.03
209.35	-1006.16
182.8	-876.77
161.74	-734.56
141.6	-578.31
117.8	-420.53
90.33	-279.24
57.98	-162.96
18.92	-66.83
-26.86	18.92
-75.38	94.91
-118.71	149.84
-147.71	175.48
-159	176.7
-155.33	169.37
-144.65	168.76
-134.28	179.75
-128.78	195.62
-129.39	207.21
-133.97	211.79
-138.85	212.1
-140.99	213.62
-139.77	218.51
-137.02	224.91
-134.58	230.1
-135.19	231.63
-139.16	228.88
-144.04	226.14
-145.87	228.88
-141.91	238.95
-132.14	254.52
-121.46	268.86
-116.27	276.49
-118.71	278.02
-125.73	280.15
-133.06	286.87
-136.11	299.38
-134.58	312.81
-130.62	323.49
-126.95	330.51
-125.12	336.91
-124.51	344.24
-123.9	353.7
-121.77	364.69
-118.41	376.59
-114.14	388.49
-109.25	399.78
-104.68	410.16
-99.49	420.23
-93.08	432.43
-85.14	445.86
-77.21	458.68
-69.89	468.14
-61.65	473.94
-52.19	477.6
-39.98	482.18
-26.25	487.67
-15.26	490.72
-9.46	487.06
-7.63	476.99
-7.02	462.95
-4.88	446.47
-0.92	429.08
3.05	409.85
6.41	387.88
9.46	363.77
12.51	336.91
14.04	307.92
11.9	276.79
5.8	245.97
-0.31	219.42
-3.36	198.06
-3.97	179.75
-5.49	159
-12.21	133.36
-22.58	106.51
-32.04	84.23
-36.62	70.8
-36.62	64.09
-36.01	58.29
-38.15	48.52
-42.42	33.57
-46.08	18.92
-46.69	8.85
-46.08	4.27
-46.69	2.75
-51.57	-0.92
-59.51	-7.32
-65.92	-13.12
-65.92	-14.34
-59.81	-10.68
-52.49	-6.1
-49.74	-5.8
-52.8	-9.77
-57.07	-12.51
-58.59	-8.85
-55.24	1.22
-51.27	11.29
-50.66	15.26
-54.63	12.51
-59.81	7.32
-62.26	6.1
-59.2	13.12
-52.8	25.94
-47	40.28
-44.86	50.35
-47.3	54.02
-52.19	51.88
-56.46	48.52
-59.2	46.69
-60.12	50.05
-60.12	57.68
-58.9	67.14
-55.54	77.21
-50.35	84.84
-45.47	88.2
-43.33	86.36
-44.56	81.48
-46.69	76.6
-48.22	75.07
-47.3	76.6
-45.17	78.74
-41.81	78.13
-38.45	75.07
-34.79	72.02
-31.74	73.85
-28.69	82.4
-25.02	96.44
-20.75	111.69
-16.48	123.6
-14.34	129.7
-15.26	131.84
-17.09	133.67
-16.78	139.16
-12.21	153.5
-4.58	177.31
1.53	206.3
3.97	233.76
3.05	252.99
3.36	261.84
7.93	263.37
18.92	263.37
33.26	262.76
45.47	259.09
50.35	247.5
46.08	227.36
34.18	201.11
18.92	171.51
4.88	139.77
-6.1	104.68
-15.87	66.22
-26.25	29.6
-35.71	1.53
-42.72	-15.56
-46.69	-24.41
-47.61	-29.3
-46.39	-32.65
-43.03	-35.4
-38.45	-36.32
-34.48	-37.23
-33.26	-40.28
-35.71	-45.47
-39.06	-50.35
-39.98	-51.57
-37.23	-49.44
-32.04	-46.39
-28.99	-46.39
-30.52	-50.96
-35.71	-57.37
-41.5	-61.34
-43.33	-60.42
-39.98	-55.54
-32.96	-49.74
-25.94	-44.56
-20.75	-38.76
-16.48	-29.3
-11.29	-14.95
-3.66	0.92
8.54	12.82
27.47	18.92
55.24	23.8
93.38	37.23
141.3	66.53
196.84	105.9
256.35	134.89
313.72	129.09
366.21	77.51
414.43	-6.41
460.82	-91.25
508.12	-150.15
552.98	-184.63
585.02	-225.22
590.21(R)	-315.25
564.27	-480.04
511.78	-708.62
442.2	-961
368.35	-1192.93
302.73	-1371.77
259.7	-1485.29
247.5	-1535.95
262.45	-1530.15
286.87	-1474.61
298.16	-1380.92
284.42	-1265.87
250.85	-1144.1
213.93	-1020.81
184.33	-890.5
161.74	-744.32
140.08	-583.5
114.44	-422.36
83.92	-278.02
50.66	-157.78
14.34	-55.24
-25.02	37.23
-64.39	117.8
-98.88	174.26
-122.99	197.75
-134.89	195.01
-137.63	183.41
-136.11	179.44
-134.89	187.38
-134.89	200.81
-136.41	212.1
-138.55	218.81
-140.08	224.3
-140.08	231.32
-137.94	238.65
-133.67	244.14
-129.39	246.28
-128.78	246.28
-132.75	245.36
-139.16	246.28
-144.35	250.55
-144.04	258.79
-138.85	270.69
-130.92	284.12
-123.9	295.41
-119.32	303.65
-116.58	308.84
-114.75	313.11
-114.14	317.69
-116.58	322.57
-121.15	329.28
-125.43	338.44
-126.34	350.04
-121.77	363.77
-113.83	377.5
-106.81	388.79
-103.76	397.34
-104.68	404.36
-108.03	411.07
-109.25	419.31
-105.29	430.3
-95.21	444.34
-80.87	459.59
-66.53	473.33
-56.46	482.79
-51.27	487.37
-48.22	489.5
-43.64	492.25
-37.23	495.3
-30.82	496.83
-25.63	494.38
-20.45	487.37
-12.21	476.38
0.31	462.34
12.21	444.34
16.48	419.92
12.82	390.93
5.49	360.72
0	331.73
-1.22	304.57
-0.61	277.71
-1.83	250.85
-4.27	224.91
-5.8	201.72
-5.19	181.88
-5.19	162.66
-8.54	143.13
-15.26	124.21
-21.36	107.42
-24.72	92.77
-26.55	79.04
-30.52	64.7
-37.54	50.05
-45.47	38.45
-50.05	31.43
-50.66	26.86
-50.05	22.58
-50.05	17.09
-52.19	11.6
-54.63	8.85
-56.46	8.85
-57.98	9.46
-59.2	8.85
-60.42	6.1
-61.95	3.97
-63.17	3.97
-62.87	7.32
-60.73	11.29
-57.37	13.43
-54.63	12.51
-53.71	10.68
-55.54	10.99
-58.59	15.56
-60.42	23.8
-59.51	32.96
-55.85	39.98
-51.88	43.03
-50.05	43.95
-52.19	45.47
-56.76	50.05
-59.51	58.59
-58.29	68.66
-54.63	76.29
-51.88	78.43
-51.88	77.21
-53.71	77.21
-53.71	81.18
-50.66	88.5
-46.08	94.91
-43.03	96.13
-43.03	92.47
-44.56	87.59
-45.47	85.45
-46.08	84.84
-48.52	83.01
-53.1	77.82
-55.85	72.02
-54.32	68.05
-48.22	68.05
-40.28	71.72
-33.87	78.74
-30.52	88.5
-27.77	101.01
-23.8	115.36
-19.84	127.87
-18.01	134.58
-18.31	136.11
-19.23	136.72
-18.92	143.13
-14.34	161.74
-8.54	189.21
-4.58	217.9
-3.05	239.87
-1.83	252.38
3.05	258.18
12.51	263.06
23.5	265.81
30.21	261.54
31.43	248.41
29.6	230.41
27.47	213.32
23.5	197.14
13.43	173.95
-4.27	137.94
-26.25	90.94
-44.25	45.17
-54.02	12.82
-55.54	-3.97
-53.41	-11.9
-50.96	-18.62
-49.13	-27.16
-48.22	-36.01
-48.83	-42.42
-51.57	-47
-55.54	-50.05
-57.68	-51.88
-55.85	-50.96
-50.96	-47.61
-45.78	-43.33
-43.03	-41.2
-42.72	-42.72
-43.95	-47
-46.39	-53.1
-49.74	-58.59
-52.8	-61.65
-52.49	-60.42
-47.61	-56.46
-39.37	-50.96
-30.82	-44.86
-25.02	-37.23
-22.28	-26.55
-19.23	-11.9
-12.51	2.44
0.61	11.9
21.97	14.65
53.41	16.78
93.99	28.99
142.82	57.07
198.67	92.77
260.01	115.05
324.4	102.84
386.35	48.83
441.59	-30.21
486.76	-105.9
521.55	-160.22
547.18	-202.33
561.83(R)	-263.06
559.39	-378.42
534.97	-562.44
486.76	-798.03
419.31	-1044.92
344.85	-1262.21
279.85	-1422.73
240.17	-1518.86
231.02	-1556.09
244.75	-1539
262.15	-1473.39
266.72	-1370.24
252.99	-1245.42
227.36	-1116.94
198.67	-992.43
171.2	-864.26
143.43	-721.74
113.22	-564.88
83.01	-407.1
55.85	-263.98
28.99	-145.26
-4.27	-48.22
-47.91	32.35
-97.96	95.83
-140.38	138.24
-162.35	160.52
-162.05	168.76
-149.84	171.51
-139.47	175.17
-138.24	180.66
-144.04	187.07
-150.15	193.18
-152.28	198.67
-151.37	202.64
-151.67	203.25
-154.42	201.72
-156.86	202.94
-156.25	209.96
-151.67	222.17
-145.57	235.6
-142.52	244.14
-144.96	245.36
-150.76	242.31
-155.33	241.7
-154.72	246.89
-148.62	258.48
-140.08	272.22
-134.28	282.29
-135.19	287.78
-142.21	290.53
-150.76	293.88
-154.72	300.9
-149.23	313.72
-137.63	330.81
-125.43	349.12
-119.32	364.07
-121.15	372.01
-127.56	373.54
-131.84	374.15
-129.09	380.55
-119.32	395.51
-106.51	415.04
-96.13	433.65
-91.25	446.17
-90.94	452.27
-91.25	454.41
-88.2	455.63
-79.96	457.46
-67.14	461.12
-52.8	465.39
-40.89	466.61
-33.26	462.04
-29.91	451.05
-29.6	434.57
-28.08	418.7
-21.97	405.88
-12.82	393.68
-4.58	376.28
-0.31	349.43
-0.61	314.64
-3.97	277.4
-7.63	244.14
-10.68	218.51
-15.87	197.45
-23.5	177
-31.43	155.03
-37.84	131.23
-41.2	107.73
-43.03	86.98
-44.86	70.5
-48.83	56.76
-53.71	44.56
-57.68	33.26
-60.42	22.89
-62.87	13.73
-66.22	6.1
-69.27	0
-69.89	-4.58
-67.75	-7.63
-65.61	-11.29
-67.14	-17.4
-72.94	-25.33
-79.04	-32.96
-82.09	-36.62
-80.87	-34.48
-77.51	-26.86
-74.16	-18.01
-71.41	-10.99
-68.05	-8.54
-65.31	-10.68
-65.31	-13.73
-69.27	-14.34
-74.46	-10.68
-76.6	-3.36
-73.24	4.58
-68.05	10.38
-66.22	12.51
-70.8	12.51
-78.43	12.21
-83.62	14.65
-82.09	20.45
-74.77	29.91
-66.53	40.59
-62.56	47.91
-62.87	51.57
-64.39	53.1
-65	54.02
-65.31	54.93
-67.75	55.24
-74.16	52.8
-81.48	48.22
-83.62	44.86
-77.21	45.78
-64.09	50.35
-50.66	56.46
-43.64	59.81
-44.56	58.29
-49.44	54.02
-53.41	50.35
-53.71	50.66
-51.57	56.46
-48.22	66.22
-44.86	78.74
-40.89	91.55
-36.32	103.15
-32.65	110.47
-30.21	113.83
-28.38	117.8
-25.33	127.26
-20.14	147.71
-14.04	176.7
-11.29	206.6
-12.82	227.97
-15.87	237.73
-14.95	238.34
-7.02	235.9
6.71	233.76
20.45	231.02
27.47	223.08
25.33	209.05
13.73	187.99
-3.66	159.61
-21.67	122.99
-36.32	79.65
-45.17	34.48
-48.52	-3.36
-49.44	-28.08
-50.66	-40.28
-53.71	-45.78
-57.68	-51.27
-61.34	-59.2
-63.78	-67.14
-65.92	-73.55
-66.53	-75.99
-65	-74.16
-61.04	-69.89
-55.85	-65.92
-51.57	-64.7
-51.57	-69.27
-55.24	-78.74
-59.81	-88.81
-62.87	-94.91
-62.87	-95.52
-60.73	-92.16
-57.07	-86.36
-55.24	-81.79
-57.37	-80.57
-61.65	-82.7
-62.56	-83.31
-54.93	-77.21
-37.54	-61.04
-16.48	-38.76
0	-20.45
9.16	-13.12
19.53	-14.65
43.03	-12.82
86.98	5.19
147.71	40.89
216.06	79.65
281.68	97.05
339.66	74.16
388.79	9.46
431.82	-75.38
472.11	-151.67
509.95	-203.86
542.6	-243.84
561.83(R)	-306.7
557.25	-429.99
525.21	-626.53
468.44	-872.5
397.03	-1123.05
325.62	-1333.92
269.78	-1479.19
240.17	-1556.7
236.82	-1575.93
249.02	-1545.72
259.7	-1472.47
256.65	-1365.66
238.34	-1240.54
212.1	-1110.84
185.24	-981.14
159.61	-845.03
132.45	-695.8
102.54	-538.33
70.8	-387.27
38.76	-256.35
5.8	-148.62
-30.21	-55.85
-70.19	26.86
-108.64	95.52
-137.33	140.38
-151.98	158.08
-155.33	155.64
-153.81	148.62
-153.5	148.01
-155.94	156.86
-158.08	169.68
-157.78	180.66
-155.33	186.16
-152.59	187.68
-151.37	187.38
-153.2	188.6
-155.64	193.18
-156.86	200.5
-155.03	209.05
-150.15	217.59
-144.35	224
-141.3	228.88
-141.91	233.76
-143.13	239.56
-143.43	246.28
-141.91	252.38
-140.38	256.96
-140.99	260.93
-143.13	266.11
-144.35	274.66
-142.52	286.25
-139.77	298.46
-137.33	308.23
-136.72	316.47
-136.72	324.4
-135.8	333.56
-132.45	345.46
-126.34	360.41
-118.71	376.89
-111.39	393.98
-104.68	409.85
-98.27	423.28
-92.47	433.65
-86.67	441.59
-82.09	447.39
-79.04	451.05
-75.68	453.49
-70.5	455.63
-61.95	458.07
-51.88	459.9
-42.72	458.07
-36.32	450.13
-29.91	438.84
-21.67	426.33
-12.21	413.51
-4.27	397.64
-2.14	375.98
-6.71	346.98
-13.43	314.03
-16.17	283.51
-13.43	258.18
-7.93	236.21
-5.19	213.32
-8.24	187.07
-16.48	158.08
-25.02	130.92
-29.91	110.78
-30.82	96.74
-31.43	84.84
-35.4	69.27
-43.33	49.44
-51.57	28.69
-56.46	13.12
-57.98	4.58
-58.59	-0.31
-62.26	-5.8
-68.66	-14.95
-74.16	-25.94
-74.77	-34.48
-71.41	-37.84
-69.27	-37.54
-70.19	-36.01
-72.63	-34.48
-72.63	-32.96
-68.05	-30.21
-62.26	-27.16
-60.73	-25.94
-64.7	-26.86
-70.19	-28.38
-72.94	-28.69
-70.8	-27.77
-66.53	-27.16
-63.78	-27.16
-64.09	-26.25
-65.92	-22.28
-68.66	-14.95
-70.8	-7.32
-72.02	0.31
-71.72	7.93
-69.27	16.48
-64.7	27.77
-58.29	39.67
-52.8	48.52
-49.13	52.8
-48.22	52.49
-50.96	49.74
-56.46	46.39
-62.26	43.64
-64.7	43.33
-63.78	44.86
-59.81	48.83
-55.54	54.02
-54.32	56.76
-57.07	54.63
-61.04	47.61
-61.65	39.67
-57.37	35.71
-49.74	39.06
-41.81	51.88
-36.01	70.8
-32.35	90.64
-29.91	106.2
-28.99	113.22
-30.21	112
-32.96	107.12
-35.1	105.59
-31.43	115.97
-21.67	141.6
-8.24	177.61
3.05	215.15
7.63	241.7
5.49	252.08
2.14	249.02
2.75	239.87
8.24	229.49
16.17	218.81
22.28	207.21
23.8	193.48
20.75	175.17
12.82	149.84
0	114.14
-16.78	69.58
-34.18	24.72
-48.22	-10.68
-56.15	-31.74
-58.59	-41.2
-56.46	-45.47
-52.8	-50.66
-49.13	-58.9
-47	-68.66
-47.61	-78.13
-50.66	-85.14
-53.71	-87.28
-54.02	-84.53
-52.19	-79.35
-49.13	-74.16
-46.08	-71.11
-43.64	-71.41
-41.2	-75.07
-39.98	-81.18
-41.5	-89.11
-46.39	-97.05
-51.27	-101.62
-51.88	-100.4
-47	-93.69
-37.54	-83.01
-27.16	-71.41
-18.31	-60.12
-10.99	-47.91
-4.27	-34.79
1.83	-22.89
10.68	-12.82
25.94	-3.05
52.8	14.04
93.38	44.86
144.96	87.89
202.94	126.65
263.37	138.85
323.18	106.81
379.94	32.65
433.35	-58.59
480.65	-137.94
518.8	-195.01
544.13	-249.63
552.67(R)	-341.49
539.55	-504.15
505.07	-739.14
451.97	-1009.83
387.57	-1262.51
322.88	-1453.25
271.61	-1563.11
244.45	-1600.34
242.61	-1582.64
254.82	-1523.74
265.5	-1431.58
263.06	-1315
247.19	-1187.44
224	-1060.79
198.67	-935.06
170.9	-801.09
139.47	-651.86
106.51	-493.47
75.99	-342.1
49.74	-212.71
21.67	-108.95
-14.65	-24.11
-59.81	46.39
-104.98	99.79
-138.24	131.84
-152.89	144.65
-151.98	148.32
-144.65	153.2
-139.77	162.05
-139.77	172.73
-141.91	180.66
-144.35	183.72
-146.18	184.33
-146.48	184.63
-145.26	186.46
-143.13	189.21
-140.99	192.26
-139.47	196.23
-139.47	201.11
-140.69	207.82
-141.91	216.06
-142.82	223.39
-143.13	229.8
-141.6	235.29
-137.63	240.78
-132.14	246.89
-126.95	252.99
-125.12	258.18
-126.34	264.59
-128.48	274.35
-129.7	287.17
-128.17	300.6
-126.34	312.19
-126.34	321.04
-127.87	328.98
-128.17	339.36
-124.51	353.09
-116.58	368.65
-108.64	383
-104.68	394.29
-106.51	402.53
-109.56	409.55
-108.03	417.48
-99.79	427.86
-87.89	440.06
-77.51	451.36
-72.33	457.15
-71.11	456.54
-68.05	451.66
-59.51	447.69
-45.17	446.78
-29.3	447.08
-17.4	442.5
-12.82	427.86
-14.34	404.05
-16.48	377.5
-14.95	353.7
-10.07	333.25
-4.58	312.5
-1.53	287.17
-1.22	256.35
-2.14	223.39
-2.44	193.79
-2.75	169.37
-4.27	149.84
-7.63	133.36
-10.99	118.41
-13.12	103.45
-14.95	86.36
-19.23	66.83
-26.55	44.86
-35.71	22.89
-43.64	4.88
-48.52	-7.93
-50.05	-15.26
-49.13	-18.31
-45.78	-18.01
-41.5	-15.87
-38.15	-14.65
-39.37	-18.01
-45.78	-26.86
-54.63	-38.15
-60.42	-46.39
-59.51	-46.69
-52.49	-39.06
-44.25	-28.08
-39.67	-19.23
-40.59	-16.17
-44.86	-18.01
-49.44	-21.67
-51.88	-23.8
-51.57	-22.28
-50.05	-18.31
-48.52	-12.51
-47.91	-6.1
-49.13	0
-52.19	5.49
-56.15	9.16
-57.37	12.21
-53.41	17.4
-43.64	26.55
-32.96	37.84
-27.47	47
-29.91	50.35
-37.84	47.61
-47	43.03
-53.1	40.28
-55.54	40.89
-55.54	44.56
-53.71	51.27
-48.83	62.87
-40.59	79.65
-30.82	98.88
-22.58	114.44
-18.01	122.38
-16.78	122.68
-16.78	119.93
-15.87	121.46
-12.21	132.14
-7.63	151.98
-4.27	177.92
-3.36	204.77
-3.66	227.66
-3.05	244.45
0.92	254.52
7.93	258.79
16.48	256.96
24.72	250.24
32.04	240.78
37.54	230.41
38.76	218.51
32.96	199.58
18.31	167.85
-1.22	123.29
-20.45	71.41
-34.79	22.58
-42.11	-14.65
-43.03	-37.54
-39.98	-49.13
-35.71	-54.02
-32.04	-56.76
-29.6	-59.51
-28.38	-63.17
-27.47	-66.53
-27.77	-69.58
-30.52	-72.63
-35.4	-75.38
-39.98	-76.6
-41.5	-77.21
-38.76	-78.43
-33.57	-81.48
-30.52	-86.67
-31.43	-92.16
-35.4	-94.6
-38.15	-93.08
-36.01	-88.2
-28.08	-83.01
-18.01	-80.57
-10.68	-80.57
-8.85	-79.65
-10.38	-73.24
-10.99	-57.98
-6.41	-36.93
3.97	-15.56
19.53	1.22
40.89	14.65
70.8	33.26
111.08	63.48
161.13	103.15
219.12	135.8
279.85	138.85
337.83	97.96
390.32	20.14
435.49	-68.05
473.02	-141.6
502.62	-197.45
522.16	-261.23
526.12(R)	-373.23
509.95	-559.08
472.72	-808.41
419.01	-1077.27
356.45	-1314.09
297.24	-1484.07
253.91	-1577.45
235.9	-1604
242.61	-1577.45
262.76	-1507.26
278.32	-1403.2
276.79	-1281.13
258.18	-1158.45
231.32	-1041.26
204.77	-921.02
181.27	-782.78
158.08	-623.17
132.75	-456.85
104.37	-306.09
71.72	-185.24
32.04	-91.86
-15.26	-14.34
-65	53.41
-105.59	108.03
-128.78	141.91
-133.97	153.2
-130	151.37
-125.73	148.62
-125.43	153.5
-126.95	166.02
-127.56	179.44
-125.73	187.38
-124.21	189.21
-124.21	187.38
-125.12	187.68
-125.73	191.96
-124.21	198.97
-120.85	205.69
-116.88	209.66
-113.53	211.18
-112.3	213.32
-112.61	218.81
-113.22	229.19
-113.53	242.61
-112.61	256.04
-112	266.11
-112.3	272.22
-112.61	276.18
-111.08	279.85
-107.42	285.34
-103.76	292.05
-104.06	298.77
-109.25	305.18
-117.8	312.81
-124.51	322.57
-125.12	337.22
-117.49	356.75
-104.37	380.25
-91.55	402.83
-84.84	418.7
-86.67	423.58
-93.08	421.14
-96.13	420.23
-90.03	427.86
-75.38	444.64
-57.37	464.48
-43.33	479.74
-35.1	485.23
-30.21	482.48
-25.33	475.46
-19.23	465.7
-12.51	453.19
-7.02	437.93
-3.36	420.53
-0.61	402.22
3.05	383.91
8.24	364.99
14.95	343.02
21.97	316.47
26.55	286.25
27.16	253.91
22.58	222.47
13.73	192.26
3.66	163.57
-3.97	137.33
-6.71	114.75
-6.41	96.44
-6.1	81.48
-9.46	66.22
-17.4	47.91
-26.86	28.08
-32.65	10.38
-32.04	0
-25.33	-2.75
-17.09	-0.92
-13.12	-0.92
-16.48	-6.41
-25.63	-17.09
-35.1	-28.69
-40.59	-36.93
-42.11	-41.2
-41.5	-42.72
-41.2	-42.42
-41.5	-41.2
-42.11	-39.06
-43.33	-37.23
-45.78	-36.01
-47.61	-34.79
-45.17	-30.52
-37.84	-23.19
-28.69	-14.34
-23.19	-7.32
-25.33	-4.58
-34.79	-6.41
-46.39	-8.85
-54.32	-8.54
-56.76	-3.97
-53.41	3.36
-46.08	11.9
-37.84	19.23
-32.04	25.33
-29.3	31.13
-30.21	38.15
-32.04	47
-32.65	55.54
-31.74	60.42
-31.74	59.81
-33.57	54.93
-36.93	51.27
-38.76	54.93
-35.71	67.75
-28.99	86.06
-21.06	103.76
-14.95	115.97
-12.51	121.46
-12.21	124.21
-11.6	129.09
-8.85	141.6
-3.97	162.96
2.44	190.43
7.93	217.29
11.29	237.43
12.51	249.02
13.43	255.13
16.17	259.7
22.58	262.76
32.96	261.54
43.64	252.38
48.52	236.51
44.25	214.84
30.82	186.16
12.82	148.01
-3.05	101.01
-13.43	51.27
-18.31	8.85
-20.75	-18.62
-23.8	-33.26
-27.77	-42.11
-31.13	-49.44
-32.35	-55.85
-30.52	-59.51
-26.25	-59.81
-21.97	-61.04
-19.84	-67.14
-20.14	-76.29
-20.75	-82.4
-21.06	-82.7
-20.45	-78.74
-20.45	-76.9
-23.19	-80.87
-28.38	-89.42
-33.57	-97.96
-36.62	-101.62
-36.01	-99.49
-31.43	-92.47
-23.8	-83.31
-14.95	-74.46
-6.71	-65.92
-0.92	-57.37
3.36	-46.08
7.93	-31.13
14.95	-15.87
25.02	-3.66
40.89	6.41
66.22	22.28
104.37	52.19
154.42	96.44
211.49	138.55
268.25	154.11
320.13	124.82
368.35	53.41
415.34	-35.71
460.51	-114.14
500.79	-172.12
528.87	-227.97
536.50(R)	-319.82
519.71	-480.65
479.74	-710.75
423.58	-974.73
361.02	-1220.7
303.34	-1406.86
263.67	-1516.11
250.24	-1558.23
261.54	-1549.68
284.12	-1501.16
299.99	-1417.85
295.72	-1307.68
272.52	-1183.78
241.7	-1058.35
212.71	-934.14
187.99	-802.31
164.79	-655.21
140.99	-496.83
115.66	-343.32
87.89	-211.49
53.1	-107.12
9.16	-23.5
-39.37	48.22
-82.7	108.03
-111.39	148.93
-123.6	166.32
-123.6	165.71
-119.63	158.69
-116.88	155.94
-117.19	160.83
-121.15	169.07
-126.95	175.48
-133.36	178.83
-136.11	181.88
-133.06	187.68
-124.21	196.23
-113.83	205.99
-107.73	213.32
-109.25	215.76
-116.88	213.93
-125.43	210.88
-129.39	211.79
-126.04	219.73
-117.19	234.07
-106.81	250.24
-100.71	261.84
-101.32	266.42
-106.81	267.94
-111.69	271.61
-112.92	280.15
-111.69	290.53
-112	298.46
-115.36	303.34
-119.02	308.84
-120.24	317.69
-119.02	330.51
-116.58	343.32
-114.44	354.31
-111.08	364.69
-103.45	377.2
-92.47	392.46
-81.48	408.33
-73.85	422.36
-70.19	433.04
-67.75	440.67
-63.17	446.47
-55.24	452.27
-45.47	457.76
-35.71	462.04
-26.55	462.65
-18.92	457.15
-12.82	446.78
-7.63	433.65
-3.36	419.62
0	405.27
4.58	389.71
10.38	371.7
15.56	349.43
17.4	322.27
15.87	292.05
13.73	261.84
14.04	235.29
18.62	213.32
24.11	193.79
23.5	171.51
14.34	144.04
0.61	115.05
-10.99	88.81
-17.4	67.75
-18.31	52.8
-17.09	41.81
-17.4	33.26
-21.06	25.94
-26.86	18.62
-33.87	9.16
-38.76	-1.22
-39.37	-9.46
-35.4	-12.82
-31.13	-12.82
-31.13	-13.12
-37.23	-17.09
-45.78	-24.11
-50.96	-29.3
-50.05	-30.21
-44.56	-26.55
-37.84	-19.23
-33.26	-10.68
-31.43	-2.75
-31.43	3.05
-33.26	5.19
-36.32	3.97
-39.37	1.83
-40.89	1.22
-39.98	3.66
-38.45	8.24
-38.15	12.82
-39.67	15.87
-42.11	19.23
-43.03	23.5
-41.81	29.91
-39.37	37.54
-39.06	44.56
-40.59	50.96
-41.5	57.07
-40.28	61.95
-36.62	64.7
-32.35	64.7
-31.13	63.48
-31.43	64.7
-30.52	72.02
-27.16	85.14
-22.58	100.71
-18.92	114.75
-18.01	124.82
-18.31	130.62
-17.7	133.36
-13.73	136.11
-7.32	142.82
-0.92	157.47
2.75	180.66
2.75	208.13
0.61	233.46
-1.53	250.24
-1.53	257.26
1.83	257.26
9.16	254.82
20.14	251.77
32.65	247.19
40.59	237.73
39.67	221.86
31.13	201.42
19.84	177.92
10.99	151.37
6.71	120.24
2.14	82.7
-7.32	40.89
-19.84	3.66
-30.21	-22.58
-35.1	-35.1
-34.18	-38.15
-31.13	-37.54
-29.3	-39.37
-30.52	-44.86
-32.65	-52.19
-34.18	-58.59
-34.79	-63.17
-34.18	-65.61
-33.57	-68.05
-32.35	-71.11
-30.82	-73.55
-28.99	-73.85
-28.08	-71.72
-29.6	-69.89
-32.65	-70.5
-34.48	-72.94
-31.13	-72.63
-22.89	-66.83
-13.73	-56.76
-7.32	-44.86
-4.88	-32.65
-2.75	-20.75
2.44	-8.85
13.12	1.53
28.99	9.16
50.35	16.17
79.65	32.04
119.93	64.7
171.51	112
230.41	155.03
289.31	166.93
341.8	128.17
386.66	45.17
426.33	-52.19
463.56	-132.75
496.83	-189.82
519.41	-248.41
522.46(R)	-349.43
502.62	-520.94
461.43	-754.7
403.14	-1010.13
337.22	-1239.01
277.1	-1407.17
236.21	-1503.91
223.69	-1537.48
235.9	-1519.17
255.43	-1458.44
264.59	-1365.05
255.13	-1250.92
233.76	-1129.76
211.79	-1008.3
194.4	-882.26
177	-743.1
153.5	-590.82
122.99	-436.1
89.42	-293.27
57.37	-171.51
24.41	-68.97
-14.34	19.23
-58.9	91.86
-100.71	140.99
-129.7	162.05
-140.99	160.83
-137.02	151.98
-127.26	148.93
-120.54	155.94
-119.32	169.07
-121.77	182.19
-124.82	191.96
-125.12	198.36
-122.99	202.64
-119.63	204.16
-116.88	203.25
-115.97	201.42
-117.19	200.81
-120.24	203.25
-123.9	208.44
-126.04	215.15
-125.43	223.69
-121.46	232.54
-116.27	242
-112.61	250.24
-112	256.35
-114.75	259.7
-119.32	260.93
-123.6	263.06
-125.43	269.17
-122.38	281.98
-115.97	299.99
-108.34	318.3
-103.45	332.34
-103.15	339.66
-105.29	343.32
-107.12	347.9
-106.51	355.53
-103.76	366.21
-99.79	378.72
-94.6	393.07
-86.98	410.16
-77.51	429.38
-67.75	447.39
-60.12	458.98
-56.46	461.43
-55.24	456.54
-52.19	449.83
-43.95	445.86
-31.13	445.56
-17.4	445.25
-7.63	440.67
-2.44	430.3
0.61	416.87
4.88	402.83
9.46	387.57
12.21	368.65
11.9	343.02
10.99	311.89
12.51	280.15
16.78	251.16
20.45	224.91
18.92	199.28
11.29	173.65
-0.31	148.93
-11.6	126.95
-18.92	108.64
-21.67	93.08
-21.06	79.04
-20.75	65
-23.19	50.35
-28.99	34.48
-36.01	18.01
-42.72	3.05
-47.61	-8.54
-50.35	-14.95
-49.44	-14.95
-45.17	-10.68
-38.45	-5.49
-33.87	-3.05
-35.1	-5.49
-43.03	-12.82
-54.02	-22.89
-60.42	-31.13
-59.2	-34.79
-52.49	-32.65
-44.86	-25.63
-41.81	-17.4
-44.25	-11.29
-47.91	-8.54
-48.52	-7.63
-46.69	-6.71
-45.17	-4.88
-47	-3.05
-50.96	-0.31
-53.1	3.66
-50.96	10.07
-46.39	18.01
-42.72	25.33
-42.72	30.21
-47	31.74
-52.8	31.43
-56.15	31.43
-56.76	34.18
-53.71	41.2
-48.22	51.88
-43.33	61.65
-41.5	67.14
-43.33	68.36
-47.3	69.27
-48.83	75.68
-44.56	89.42
-35.1	107.73
-24.41	123.6
-17.4	132.45
-15.56	133.97
-15.56	133.97
-13.43	138.24
-7.63	151.98
-0.92	175.17
3.36	204.16
4.27	231.32
2.44	250.85
0.92	260.01
1.83	259.4
7.93	253.91
19.53	248.41
33.26	242.92
41.81	234.07
38.45	216.67
21.36	187.07
-1.22	148.01
-18.01	105.59
-25.02	65.92
-25.63	32.04
-28.38	4.58
-37.84	-17.7
-49.74	-35.4
-56.76	-47.61
-55.24	-55.24
-48.22	-58.9
-42.42	-60.12
-41.2	-58.9
-43.95	-56.15
-45.78	-54.02
-44.25	-55.54
-40.89	-61.65
-39.37	-72.33
-40.28	-82.7
-42.72	-88.5
-44.25	-89.72
-45.47	-87.89
-47.3	-85.14
-49.74	-83.01
-49.74	-80.26
-43.64	-75.68
-32.35	-69.89
-20.75	-64.7
-13.12	-59.81
-10.99	-53.1
-10.38	-41.81
-6.41	-26.55
4.27	-10.68
23.8	3.66
52.49	19.53
90.64	44.56
137.94	82.09
192.26	122.68
248.72	144.04
301.82	124.51
349.43	60.42
393.98	-28.99
436.4	-112.92
476.07	-174.26
506.59	-225.83
520.02	-303.34
509.95	-441.59
478.52	-648.8
