  I     	  II     	  PW     	  PW'
-32.04	-140.08	 15.69(A)	0
-33.26	-140.08	15.69	-10.17
-34.18	-139.16	15.65	-10.17
-35.4	-138.55	15.61	-5.09
-35.71	-140.08	15.58	-10.17
-35.1	-143.43	15.54	0
-32.65	-146.48	15.54	-5.09
-27.47	-147.4	15.52	0
-20.14	-147.09	15.52	0
-11.9	-147.71	15.52	5.09
-5.49	-150.76	15.54	0
-3.97	-154.42	15.54	-5.09
-7.02	-154.72	15.52	-5.09
-11.6	-148.01	15.5	-15.26
-13.12	-134.28	15.44	-20.35
-7.63	-116.58	15.36	-20.35
2.44	-100.1	15.28	-15.26
12.51	-87.89	15.22	-5.09
17.7	-81.18	15.2	10.17
18.01	-76.29	15.24	25.43
17.7	-70.5	15.34	40.69
20.45	-61.34	15.5	61.04
25.63	-50.05	15.75	66.12
29.3	-38.76	16.01	71.21
28.69	-29.3	16.3	61.04
24.41	-21.06	16.54	45.78
20.14	-13.73	16.72	30.52
18.62	-6.71	16.85	15.26
18.62	-0.31	16.91	15.26
18.01	5.8	16.97	15.26
16.17	11.29	17.03	25.43
13.43	16.48	17.13	50.86
10.68	21.36	17.33	71.21
7.63	24.11	17.62	96.64
1.83	22.89	18.01	101.73
-6.41	17.09	18.41	106.82
-14.04	8.85	18.84	96.64
-18.62	0.92	19.23	71.21
-18.92	-5.19	19.51	55.95
-17.7	-8.85	19.74	30.52
-18.62	-10.99	19.86	20.35
-22.28	-12.21	19.94	15.26
-26.86	-12.82	20	20.35
-31.13	-13.43	20.08	30.52
-34.79	-14.34	20.2	50.86
-38.15	-14.34	20.41	66.12
-40.89	-13.12	20.67	76.3
-42.42	-10.99	20.98	81.38
-42.11	-9.77	21.3	76.3
-41.5	-10.99	21.61	66.12
-40.89	-14.04	21.87	61.04
-40.89	-17.4	22.12	66.12
-39.98	-18.62	22.38	76.3
-37.54	-18.01	22.69	91.56
-33.57	-18.31	23.05	111.9
-29.91	-21.36	23.5	132.25
-26.86	-27.16	24.03	132.25
-25.33	-32.96	24.56	127.16
-24.41	-33.87	25.07	106.82
-23.19	-28.38	25.49	86.47
-20.75	-18.62	25.84	50.86
-16.78	-8.54	26.04	25.43
-11.9	-2.75	26.14	5.09
-7.93	-0.92	26.16	-10.17
-6.41	-0.31	26.12	-15.26
-7.02	3.05	26.06	0
-8.85	9.46	26.06	15.26
-9.77	15.56	26.12	30.52
-8.54	18.92	26.25	50.86
-6.41	18.01	26.45	55.95
-5.19	15.56	26.67	61.04
-6.1	14.04	26.92	45.78
-7.93	14.34	27.1	30.52
-8.85	14.95	27.22	0
-7.93	14.65	27.22	-20.35
-5.8	14.65	27.14	-45.78
-3.36	16.17	26.96	-61.04
-1.53	19.84	26.71	-66.12
-0.92	23.19	26.45	-61.04
-2.14	24.41	26.21	-45.78
-4.58	22.89	26.02	-40.69
-8.24	20.45	25.86	-30.52
-11.6	20.14	25.74	-30.52
-14.34	20.75	25.62	-45.78
-16.48	18.92	25.43	-76.3
-19.23	12.21	25.13	-106.82
-22.89	0.92	24.7	-147.51
-26.86	-10.99	24.11	-178.03
-30.21	-18.62	23.4	-188.2
-32.04	-20.45	22.64	-183.11
-32.65	-19.53	21.91	-172.94
-32.65	-19.84	21.22	-142.42
-33.26	-24.41	20.65	-96.64
-35.71	-32.04	20.26	-55.95
-40.28	-38.45	20.04	-15.26
-45.47	-40.59	19.98	25.43
-49.13	-38.45	20.08	40.69
-49.13	-36.62	20.24	50.86
-45.78	-38.15	20.45	45.78
-40.89	-43.03	20.63	20.35
-37.84	-47.61	20.71	-5.09
-36.32	-47.3	20.69	-30.52
-34.48	-40.28	20.57	-66.12
-31.13	-29.91	20.31	-86.47
-27.16	-20.45	19.96	-111.9
-25.94	-15.26	19.51	-127.16
-30.21	-13.73	19	-132.25
-39.06	-13.12	18.47	-142.42
-48.22	-11.29	17.9	-137.33
-51.88	-7.93	17.35	-132.25
-48.83	-5.19	16.83	-116.99
-41.81	-3.36	16.36	-106.82
-34.18	-3.05	15.93	-81.38
-28.08	-2.75	15.61	-61.04
-22.89	-1.83	15.36	-30.52
-18.01	-1.22	15.24	-5.09
-14.04	-0.61	15.22	20.35
-12.51	0.61	15.3	50.86
-14.65	4.27	15.5	66.12
-19.23	9.46	15.77	86.47
-23.5	13.73	16.11	86.47
-26.25	14.04	16.46	71.21
-26.86	10.07	16.74	40.69
-25.94	3.36	16.91	-5.09
-24.11	-3.05	16.89	-55.95
-21.06	-7.32	16.66	-116.99
-17.4	-10.68	16.2	-172.94
-13.43	-15.87	15.5	-208.54
-9.46	-24.72	14.67	-233.98
-4.58	-36.62	13.73	-223.8
2.44	-45.78	12.84	-198.37
14.04	-43.03	12.04	-152.59
33.87	-17.7	11.43	-81.38
68.36	40.59	11.11	-10.17
126.65	140.08	11.07	55.95
213.01	281.68	11.29	111.9
317.99	449.22	11.74	157.68
409.85	606.08	12.37	183.11
444.34	704.35	13.1	188.2
393.07	709.23(R)	13.86	183.11
268.86	624.69	14.59	162.77
122.68	492.86	15.24	132.25
16.48	361.02	15.77	86.47
-19.53	256.96	16.11	30.52
-3.36	177.61	16.24	-30.52
20.45	108.34	16.11	-81.38
18.92	48.22	15.79	-116.99
-9.16	9.16	15.32	-132.25
-42.42	-2.75	14.79	-111.9
-61.34	0.61	14.34	-81.38
-62.56	-0.31	14.02	-30.52
-56.46	-15.87	13.9	15.26
-52.49	-38.45	13.96	55.95
-51.27	-53.41	14.18	66.12
-49.44	-53.41	14.45	61.04
-45.17	-44.56	14.69	35.61
-40.89	-36.93	14.83	0
-39.98	-36.01	14.83	-25.43
-42.42	-38.76	14.73	-40.69
-44.86	-41.2	14.57	-40.69
-43.95	-42.11	14.4	-10.17
-38.45	-43.64	14.36	25.43
-30.82	-48.22	14.47	71.21
-25.33	-56.15	14.75	106.82
-24.11	-64.39	15.18	137.33
-26.55	-70.5	15.73	137.33
-30.52	-72.94	16.28	111.9
-34.18	-72.02	16.72	76.3
-36.93	-69.89	17.03	25.43
-38.45	-68.97	17.13	-15.26
-38.76	-71.11	17.07	-40.69
-37.54	-77.51	16.91	-45.78
-36.62	-87.28	16.72	-25.43
-36.93	-98.27	16.62	15.26
-39.67	-107.73	16.68	61.04
-44.25	-114.14	16.93	101.73
-49.13	-117.49	17.33	132.25
-52.49	-118.71	17.86	137.33
-54.02	-119.63	18.41	116.99
-54.32	-120.54	18.88	91.56
-54.63	-120.85	19.25	45.78
-54.93	-119.63	19.43	0
-55.85	-116.88	19.43	-35.61
-57.37	-114.14	19.29	-55.95
-58.9	-112.61	19.06	-61.04
-60.42	-113.83	18.82	-50.86
-61.04	-117.8	18.62	-30.52
-59.81	-123.29	18.49	0
-56.15	-126.65	18.49	30.52
-50.66	-125.73	18.62	50.86
-44.56	-120.24	18.82	61.04
-37.84	-112.61	19.06	66.12
-31.43	-106.51	19.33	55.95
-26.25	-104.37	19.55	40.69
-23.19	-106.2	19.72	30.52
-22.58	-109.56	19.84	25.43
-23.5	-113.22	19.94	15.26
-24.72	-116.88	20	25.43
-23.8	-122.07	20.1	30.52
-19.84	-129.09	20.22	45.78
-13.73	-137.33	20.41	50.86
-7.02	-144.65	20.61	61.04
-0.61	-148.93	20.85	55.95
6.1	-149.54	21.08	55.95
14.34	-147.09	21.3	50.86
23.5	-143.13	21.51	40.69
31.43	-138.24	21.67	35.61
35.1	-131.53	21.81	25.43
32.65	-121.77	21.91	20.35
25.63	-109.25	21.99	20.35
18.62	-95.21	22.08	15.26
15.56	-81.79	22.14	20.35
18.01	-69.27	22.22	25.43
22.58	-57.68	22.32	30.52
25.33	-46.69	22.44	45.78
23.8	-36.01	22.62	61.04
18.92	-26.55	22.87	71.21
13.12	-17.7	23.15	81.38
7.63	-9.16	23.48	96.64
2.14	0	23.87	106.82
-4.27	8.85	24.29	116.99
-10.99	15.26	24.76	111.9
-17.09	18.31	25.21	111.9
-21.36	18.01	25.66	111.9
-23.8	16.78	26.1	106.82
-25.94	16.17	26.53	111.9
-28.69	15.56	26.98	111.9
-30.52	14.34	27.43	116.99
-30.21	11.29	27.89	122.07
-28.08	7.02	28.38	127.16
-26.86	3.36	28.89	122.07
-28.38	1.83	29.38	122.07
-32.35	3.97	29.87	111.9
-35.4	10.38	30.32	101.73
-35.1	18.31	30.72	86.47
-31.74	25.02	31.07	76.3
-28.08	27.47	31.37	66.12
-28.38	24.41	31.64	55.95
-32.35	18.62	31.86	50.86
-36.01	14.34	32.06	45.78
-35.4	14.04	32.25	50.86
-28.69	16.17	32.45	40.69
-19.53	17.09	32.61	40.69
-12.82	14.04	32.78	50.86
-12.21	7.63	32.98	61.04
-16.17	0.92	33.22	91.56
-20.14	-3.66	33.59	116.99
-21.06	-6.71	34.06	137.33
-19.53	-8.54	34.61	157.68
-17.4	-10.68	35.24	162.77
-15.87	-12.51	35.89	147.51
-13.12	-11.9	36.48	127.16
-7.93	-7.63	36.99	101.73
-2.14	-1.53	37.4	61.04
0	3.97	37.64	30.52
-3.66	6.71	37.76	5.09
-11.29	7.02	 37.78(V)	-20.35
-18.01	7.02	37.7	-30.52
-19.53	8.85	37.58	-45.78
-15.56	12.21	37.4	-40.69
-10.07	15.26	37.23	-40.69
-7.32	15.56	37.07	-35.61
-8.24	12.82	36.93	-35.61
-10.99	8.85	36.79	-30.52
-13.73	6.1	36.66	-30.52
-15.87	5.19	36.54	-35.61
-18.92	4.27	36.4	-40.69
-23.19	2.14	36.24	-45.78
-27.16	-1.53	36.05	-61.04
-29.3	-6.1	35.81	-71.21
-28.69	-10.99	35.52	-86.47
-26.86	-16.78	35.18	-96.64
-26.86	-23.8	34.79	-111.9
-28.69	-30.52	34.34	-127.16
-31.43	-33.26	33.84	-137.33
-33.57	-29.91	33.29	-142.42
-33.87	-20.75	32.72	-152.59
-32.35	-10.38	32.11	-157.68
-29.91	-3.05	31.47	-147.51
-28.08	-1.22	30.88	-142.42
-26.55	-3.36	30.32	-127.16
-25.02	-6.71	29.81	-111.9
-23.5	-9.77	29.36	-96.64
-21.06	-12.51	28.97	-86.47
-17.4	-14.65	28.63	-76.3
-13.12	-16.17	28.32	-66.12
-8.85	-16.48	28.06	-61.04
-7.02	-16.48	27.81	-61.04
-7.93	-16.48	27.57	-55.95
-10.38	-16.78	27.34	-66.12
-13.12	-16.78	27.08	-66.12
-15.26	-14.34	26.82	-81.38
-16.17	-8.54	26.49	-91.56
-15.87	0	26.12	-106.82
-14.65	8.85	25.7	-111.9
-13.12	15.56	25.25	-122.07
-12.21	17.7	24.76	-122.07
-11.9	15.56	24.27	-116.99
-13.43	10.99	23.8	-111.9
-14.95	7.32	23.36	-101.73
-16.78	6.71	22.95	-91.56
-18.92	9.16	22.58	-76.3
-21.97	11.29	22.28	-55.95
-26.25	10.07	22.05	-35.61
-29.6	3.66	21.91	-5.09
-31.74	-5.8	21.89	20.35
-32.35	-14.04	21.97	40.69
-33.26	-18.62	22.14	50.86
-36.32	-18.62	22.34	55.95
-40.59	-16.17	22.56	35.61
-44.25	-14.04	22.71	5.09
-46.08	-14.34	22.73	-25.43
-45.78	-16.17	22.62	-61.04
-43.64	-18.62	22.38	-91.56
-40.89	-19.84	22.01	-106.82
-37.84	-20.14	21.59	-116.99
-33.87	-20.14	21.12	-111.9
-28.99	-20.14	20.67	-106.82
-23.8	-20.14	20.24	-91.56
-19.84	-17.7	19.88	-71.21
-18.62	-11.6	19.59	-45.78
-19.53	-2.44	19.41	-25.43
-21.67	7.93	19.31	-15.26
-21.97	17.4	19.25	-15.26
-20.14	22.89	19.19	-10.17
-15.26	23.5	19.15	-15.26
-9.16	21.06	19.08	-15.26
-3.05	18.31	19.02	-5.09
0.92	17.09	19	0
2.14	16.48	19	10.17
-0.31	14.65	19.04	30.52
-5.19	10.07	19.17	35.61
-9.77	3.97	19.31	40.69
-12.21	0.31	19.47	40.69
-10.99	1.22	19.63	25.43
-7.63	5.49	19.74	10.17
-4.58	10.38	19.78	-10.17
-3.97	11.9	19.74	-20.35
-5.49	10.07	19.65	-35.61
-6.41	7.02	19.51	-30.52
-4.58	4.88	19.39	-30.52
-0.31	4.88	19.27	-15.26
2.14	6.1	19.21	5.09
-0.31	6.71	19.23	10.17
-8.24	7.02	19.27	15.26
-17.7	6.71	19.33	15.26
-23.19	7.02	19.39	0
-23.5	7.63	19.39	-5.09
-20.14	8.54	19.37	-20.35
-17.4	9.46	19.29	-35.61
-16.78	10.38	19.15	-35.61
-18.62	10.68	19	-40.69
-21.36	9.46	18.84	-30.52
-25.02	6.41	18.72	-20.35
-28.99	1.83	18.64	-5.09
-32.65	-2.44	18.62	-5.09
-33.57	-5.8	18.6	10.17
-31.74	-8.85	18.64	15.26
-27.77	-13.43	18.7	15.26
-24.11	-20.45	18.76	25.43
-21.36	-27.16	18.86	30.52
-20.45	-30.52	18.98	35.61
-20.14	-26.86	19.13	35.61
-20.14	-17.09	19.27	35.61
-20.45	-4.27	19.41	25.43
-21.36	6.1	19.51	20.35
-22.58	10.99	19.59	0
-24.41	9.46	19.59	-15.26
-26.55	2.75	19.53	-25.43
-27.47	-5.8	19.43	-35.61
-26.86	-13.73	19.29	-35.61
-24.41	-18.92	19.15	-30.52
-20.45	-21.06	19.02	-20.35
-17.4	-20.14	18.94	-5.09
-15.87	-17.4	18.92	15.26
-15.26	-14.34	18.98	25.43
-14.34	-12.51	19.08	35.61
-13.12	-11.29	19.23	30.52
-10.07	-9.77	19.35	30.52
-4.58	-7.63	19.47	20.35
3.05	-2.75	19.55	5.09
13.43	7.93	19.57	5.09
28.08	31.13	19.59	0
53.1	77.51	19.59	-5.09
97.66	158.39	19.57	5.09
169.98	280.46	19.59	5.09
269.17	436.71	19.61	5.09
375.06	599.67	19.63	10.17
451.36	726.93	19.67	10.17
464.78	776.67(R)	19.72	5.09
406.8	732.12	19.74	0
300.9	614.93	19.74	-5.09
190.73	469.97	19.72	-5.09
113.53	338.13	19.69	-5.09
76.29	237.43	19.67	0
60.12	162.05	19.67	0
40.89	101.01	19.67	10.17
10.68	51.88	19.72	10.17
-20.75	18.62	19.76	5.09
-40.89	-1.83	19.78	5.09
-45.47	-19.23	19.8	-10.17
-40.28	-42.72	19.76	-20.35
-34.48	-72.94	19.67	-45.78
-32.65	-98.88	19.49	-66.12
-34.48	-109.56	19.23	-81.38
-36.93	-101.32	18.9	-86.47
-38.76	-81.48	18.56	-81.38
-38.76	-61.65	18.23	-55.95
-37.84	-50.96	18.01	-25.43
-37.23	-51.88	17.9(A)	10.17
-38.15	-60.42	17.94	55.95
-40.59	-70.5	18.17	86.47
-42.11	-77.21	18.51	122.07
-41.5	-80.57	19	137.33
-39.37	-83.31	19.55	147.51
-39.37	-87.28	20.14	142.42
-42.42	-92.16	20.71	127.16
-47.91	-96.13	21.22	96.64
-53.1	-97.66	21.61	55.95
-55.85	-96.74	21.83	20.35
-55.85	-94.91	21.91	-15.26
-54.32	-93.69	21.85	-40.69
-52.49	-92.77	21.69	-50.86
-50.96	-91.86	21.49	-50.86
-49.44	-90.33	21.28	-35.61
-47.3	-89.42	21.14	-15.26
-44.86	-89.11	21.08	10.17
-42.72	-89.72	21.12	35.61
-40.89	-90.64	21.26	45.78
-39.37	-90.94	21.44	50.86
-39.37	-90.94	21.65	50.86
-40.89	-90.64	21.85	40.69
-44.25	-90.94	22.01	30.52
-47.61	-91.86	22.14	15.26
-49.13	-93.38	22.2	5.09
-47.61	-94.3	22.22	0
-44.25	-94.91	22.22	5.09
-41.5	-95.52	22.24	5.09
-41.2	-97.35	22.26	10.17
-43.64	-101.62	22.3	20.35
-47.3	-108.64	22.38	20.35
-49.74	-116.27	22.46	25.43
-49.74	-122.68	22.56	20.35
-47.3	-127.26	22.64	15.26
-41.81	-130.92	22.71	5.09
-35.1	-136.41	22.73	10.17
-28.99	-143.43	22.77	0
-25.33	-149.23	22.77	10.17
-25.02	-149.84	22.81	15.26
-26.55	-143.43	22.87	25.43
-27.77	-130.92	22.97	35.61
-26.86	-119.02	23.11	45.78
-24.11	-113.83	23.3	55.95
-21.06	-117.49	23.52	61.04
-18.62	-126.65	23.76	61.04
-15.56	-134.58	24.01	61.04
-10.07	-137.33	24.25	45.78
-3.05	-134.28	24.44	40.69
3.05	-128.78	24.6	35.61
5.19	-122.99	24.74	25.43
2.75	-115.97	24.84	20.35
-1.22	-106.2	24.92	20.35
-3.36	-92.47	25	20.35
-1.83	-75.38	25.09	25.43
2.44	-57.68	25.19	30.52
7.02	-42.72	25.31	35.61
11.29	-31.74	25.45	50.86
15.26	-24.41	25.66	55.95
18.92	-18.31	25.88	61.04
20.75	-11.29	26.12	66.12
20.45	-2.75	26.39	66.12
16.78	6.41	26.65	71.21
11.9	14.65	26.94	71.21
7.02	19.84	27.22	66.12
4.27	20.75	27.49	71.21
3.05	17.7	27.77	66.12
2.75	12.51	28.04	71.21
2.14	7.63	28.32	81.38
1.83	5.49	28.65	86.47
1.53	6.41	28.99	101.73
1.53	8.54	29.4	111.9
1.22	9.46	29.85	122.07
-0.61	7.02	30.34	122.07
-4.88	1.83	30.82	127.16
-10.68	-3.97	31.33	106.82
-16.17	-8.24	31.76	91.56
-19.23	-10.38	32.13	55.95
-18.31	-11.6	32.35	10.17
-15.56	-12.82	32.39	-25.43
-14.04	-15.87	32.29	-45.78
-15.87	-18.62	32.11	-45.78
-20.45	-17.4	31.92	-15.26
-24.72	-9.77	31.86	25.43
-24.72	3.36	31.96	86.47
-19.53	15.87	32.31	132.25
-10.99	21.97	32.84	172.94
-3.66	19.84	33.53	188.2
-0.61	12.82	34.28	172.94
-1.83	6.1	34.97	142.42
-4.58	3.36	35.54	96.64
-7.02	4.58	35.93	55.95
-7.93	7.02	36.15	10.17
-7.63	8.85	36.2	-15.26
-7.02	9.77	36.13	-25.43
-5.8	9.46	36.03	-25.43
-4.88	8.54	35.93	-5.09
-4.58	6.41	35.91	5.09
-4.27	3.36	35.93	30.52
-3.36	0	36.05	35.61
-1.83	-3.36	36.2	45.78
0.92	-6.1	36.38	40.69
3.66	-9.16	36.54	25.43
4.27	-12.51	36.64	15.26
2.14	-15.56	 36.70(V)	-5.09
-2.14	-18.01	36.68	-20.35
-6.41	-18.92	36.6	-35.61
-7.63	-17.7	36.46	-45.78
-5.49	-16.17	36.28	-50.86
-2.14	-15.26	36.07	-61.04
-1.83	-17.09	35.83	-66.12
-7.02	-20.45	35.56	-71.21
-16.78	-24.41	35.28	-71.21
-26.25	-27.47	34.99	-76.3
-31.74	-28.99	34.69	-86.47
-32.35	-29.91	34.34	-86.47
-29.6	-31.43	34	-91.56
-26.25	-32.96	33.63	-96.64
-24.11	-33.26	33.25	-96.64
-23.8	-33.57	32.86	-96.64
-24.11	-34.79	32.47	-101.73
-24.41	-38.45	32.06	-96.64
-23.8	-43.95	31.68	-96.64
-22.89	-47.91	31.29	-91.56
-22.89	-46.08	30.93	-96.64
-24.41	-36.93	30.54	-91.56
-26.55	-22.89	30.17	-91.56
-27.47	-9.16	29.81	-96.64
-25.94	-0.92	29.42	-96.64
-22.58	0.31	29.03	-101.73
-20.14	-2.75	28.63	-96.64
-20.14	-5.8	28.24	-101.73
-21.97	-5.49	27.83	-96.64
-23.8	-3.36	27.45	-96.64
-24.72	-2.14	27.06	-86.47
-25.02	-4.27	26.71	-91.56
-25.33	-8.54	26.35	-81.38
-24.72	-11.29	26.02	-76.3
-22.58	-10.68	25.72	-71.21
-18.31	-7.32	25.43	-71.21
-13.43	-4.88	25.15	-66.12
-10.07	-6.71	24.88	-61.04
-10.07	-12.21	24.64	-55.95
-12.82	-19.84	24.41	-55.95
-16.78	-25.94	24.19	-55.95
-20.45	-28.99	23.97	-50.86
-22.28	-28.99	23.76	-55.95
-22.28	-26.86	23.54	-50.86
-20.75	-24.11	23.34	-61.04
-18.92	-21.67	23.09	-55.95
-17.7	-21.06	22.87	-61.04
-17.4	-21.97	22.62	-61.04
-18.01	-25.02	22.38	-66.12
-19.84	-29.3	22.12	-66.12
-22.58	-33.26	21.85	-66.12
-25.02	-36.62	21.59	-66.12
-26.55	-38.15	21.32	-61.04
-25.94	-38.76	21.08	-66.12
-23.19	-39.37	20.81	-61.04
-19.84	-40.89	20.57	-50.86
-17.7	-42.42	20.37	-45.78
-17.4	-42.42	20.18	-40.69
-19.23	-39.98	20.02	-25.43
-22.58	-36.62	19.92	-25.43
-25.94	-36.01	19.82	-10.17
-27.47	-39.67	19.78	-10.17
-25.94	-46.08	19.74	-5.09
-21.97	-49.44	19.72	-5.09
-18.62	-46.39	19.69	0
-17.7	-35.4	19.69	-5.09
-18.92	-20.45	19.67	-5.09
-20.14	-5.8	19.65	-5.09
-20.45	4.58	19.63	-10.17
-19.23	10.68	19.59	-10.17
-18.01	14.04	19.55	-15.26
-16.17	16.78	19.49	-15.26
-14.65	19.84	19.43	-20.35
-13.73	21.97	19.35	-20.35
-14.34	22.28	19.27	-20.35
-16.48	21.06	19.19	-25.43
-18.62	18.62	19.08	-20.35
-18.62	16.48	19	-25.43
-15.87	14.04	18.9	-20.35
-10.68	10.99	18.82	-15.26
-4.58	7.02	18.76	-15.26
0.61	3.36	18.7	-20.35
3.97	0.92	18.62	-10.17
3.97	-0.61	18.58	-15.26
0.92	-2.44	18.51	-10.17
-3.66	-5.49	18.47	-10.17
-6.41	-8.85	18.43	-5.09
-6.41	-11.6	18.41	0
-3.97	-12.82	18.41	0
-1.22	-12.21	18.41	10.17
-0.31	-10.68	18.45	10.17
-1.83	-8.24	18.49	10.17
-3.97	-6.41	18.54	15.26
-3.36	-7.63	18.6	10.17
2.75	-12.51	18.64	15.26
14.65	-16.78	18.7	5.09
31.74	-10.68	18.72	10.17
53.71	17.7	18.76	10.17
87.28	79.65	18.8	10.17
141.91	180.97	18.84	5.09
224.3	319.21	18.86	5.09
326.54	475.46	18.88	0
419.01	614.32	18.88	-5.09
462.34	693.66(R)	18.86	-15.26
432.74	684.51	18.8	-15.26
339.66	593.57	18.74	-25.43
222.17	459.59	18.64	-25.43
126.65	328.98	18.54	-25.43
75.68	229.8	18.43	-20.35
58.59	162.96	18.35	-20.35
46.39	114.14	18.27	-15.26
21.36	73.85	18.21	-10.17
-12.51	43.03	18.17	-5.09
-40.89	24.11	18.15	-5.09
-52.49	13.43	18.13	-5.09
-50.66	3.05	18.11	0
-45.47	-10.38	18.11	-10.17
-43.64	-24.11	18.07	-10.17
-45.17	-33.87	18.03	-15.26
-46.39	-38.76	17.97	-30.52
-45.78	-42.11	17.84	-35.61
-44.25	-47	17.7	-45.78
-42.42	-52.8	17.52	-45.78
-39.98	-57.98	17.33	-45.78
-38.15	-61.04	17.15	-35.61
-38.15	-64.09	17.01	-15.26
-40.89	-67.75	16.95(A)	10.17
-46.69	-72.33	16.99	35.61
-53.1	-77.51	17.13	61.04
-57.07	-82.7	17.38	86.47
-57.68	-87.59	17.72	96.64
-54.93	-92.47	18.11	116.99
-50.96	-97.05	18.58	122.07
-47.91	-100.71	19.06	122.07
-47.61	-102.54	19.55	111.9
-49.44	-102.84	20	91.56
-52.19	-101.93	20.37	61.04
-54.93	-101.32	20.61	25.43
-57.37	-102.54	20.71	-10.17
-60.12	-106.2	20.67	-35.61
-63.48	-112	20.53	-45.78
-66.83	-117.19	20.35	-40.69
-68.97	-120.54	20.18	-25.43
-69.89	-121.15	20.08	5.09
-70.8	-120.24	20.1	25.43
-72.63	-120.24	20.2	50.86
-73.85	-121.46	20.41	61.04
-72.94	-123.9	20.65	66.12
-70.19	-125.73	20.92	50.86
-65.92	-126.04	21.12	30.52
-61.04	-123.6	21.24	5.09
-56.46	-119.02	21.26	-20.35
-51.57	-112.3	21.18	-45.78
-46.39	-104.98	21	-50.86
-41.2	-99.18	20.79	-50.86
-37.84	-96.13	20.59	-35.61
-36.32	-96.13	20.45	-20.35
-35.71	-98.88	20.37	0
-35.1	-102.84	20.37	15.26
-33.26	-108.34	20.43	35.61
-30.21	-114.14	20.57	35.61
-26.55	-119.63	20.71	30.52
-23.5	-124.82	20.83	20.35
-21.06	-129.09	20.92	10.17
-18.31	-133.97	20.96	-10.17
-13.73	-138.55	20.92	-15.26
-8.24	-142.52	20.85	-25.43
-2.14	-144.04	20.75	-20.35
2.44	-142.52	20.67	-15.26
5.49	-139.16	20.61	5.09
7.63	-135.5	20.63	15.26
9.46	-132.14	20.69	35.61
11.6	-129.09	20.83	45.78
13.43	-125.43	21.02	50.86
14.34	-120.54	21.22	55.95
14.95	-113.83	21.44	50.86
14.95	-104.68	21.65	45.78
13.73	-91.86	21.83	30.52
10.99	-75.68	21.95	25.43
6.71	-57.98	22.05	15.26
1.22	-42.11	22.12	15.26
-4.27	-30.21	22.18	15.26
-9.16	-21.97	22.24	20.35
-12.51	-14.95	22.32	30.52
-14.34	-7.32	22.44	45.78
-14.95	0.92	22.62	50.86
-15.56	8.54	22.83	66.12
-17.7	13.73	23.09	71.21
-21.67	17.4	23.38	71.21
-26.86	19.53	23.66	76.3
-31.43	20.75	23.97	81.38
-33.26	19.53	24.29	71.21
-32.04	16.48	24.58	76.3
-28.69	12.21	24.88	76.3
-24.72	9.77	25.19	71.21
-20.14	10.68	25.47	71.21
-16.48	15.56	25.76	71.21
-14.65	22.28	26.04	66.12
-14.65	27.47	26.31	61.04
-16.48	28.08	26.55	45.78
-18.92	22.28	26.73	35.61
-20.14	11.29	26.88	20.35
-19.23	-0.92	26.96	5.09
-16.78	-10.38	26.98	0
-13.43	-14.34	26.98	10.17
-9.46	-14.04	27.02	35.61
-5.8	-11.29	27.16	61.04
-3.66	-7.63	27.41	96.64
-3.36	-3.97	27.79	122.07
-5.49	0	28.28	137.33
-7.02	4.58	28.83	137.33
-6.1	9.46	29.38	122.07
-2.14	14.04	29.87	96.64
2.44	18.01	30.25	71.21
4.58	20.14	30.54	45.78
3.97	20.45	30.72	20.35
2.14	19.23	30.8	15.26
2.14	17.7	30.86	15.26
5.19	16.48	30.93	20.35
8.54	17.09	31.01	35.61
8.24	18.62	31.15	45.78
2.44	20.45	31.33	50.86
-6.1	21.97	31.54	50.86
-14.04	21.97	31.74	50.86
-18.62	20.75	31.94	35.61
-18.92	19.53	32.09	25.43
-17.7	19.84	32.19	5.09
-17.4	21.36	 32.21(V)	-10.17
-18.62	23.5	32.17	-30.52
-20.45	24.41	32.04	-40.69
-22.58	23.8	31.88	-61.04
-24.41	21.36	31.64	-66.12
-26.25	18.62	31.37	-76.3
-27.47	17.09	31.07	-81.38
-28.99	16.48	30.74	-81.38
-29.91	15.87	30.42	-86.47
-30.82	15.87	30.07	-81.38
-31.13	17.4	29.75	-81.38
-30.52	22.89	29.42	-71.21
-28.08	31.13	29.14	-66.12
-24.72	38.76	28.87	-61.04
-21.36	41.81	28.63	-55.95
-19.84	39.06	28.4	-55.95
-20.14	31.13	28.18	-61.04
-21.06	21.97	27.93	-61.04
-20.14	13.12	27.69	-66.12
-16.78	5.49	27.43	-71.21
-11.9	-2.44	27.14	-81.38
-7.32	-10.99	26.82	-86.47
-4.88	-19.53	26.47	-96.64
-3.66	-27.16	26.08	-96.64
-3.05	-32.65	25.7	-96.64
-1.83	-36.62	25.31	-101.73
0	-37.54	24.9	-96.64
2.14	-35.4	24.52	-96.64
4.88	-30.21	24.13	-96.64
7.02	-23.5	23.74	-96.64
8.24	-18.01	23.36	-91.56
7.02	-14.95	22.99	-91.56
4.27	-13.73	22.62	-86.47
3.05	-11.9	22.28	-86.47
5.8	-9.16	21.93	-81.38
14.04	-6.71	21.61	-81.38
25.33	-3.97	21.28	-76.3
39.06	4.88	20.98	-71.21
58.59	33.57	20.69	-66.12
94.3	99.79	20.43	-61.04
157.17	214.84	20.18	-61.04
249.33	375.67	19.94	-55.95
356.45	555.73	19.72	-61.04
443.73	711.67	19.47	-61.04
470.58	797.42(R)	19.23	-61.04
418.7	788.57	18.98	-66.12
305.18	696.72	18.72	-66.12
177	561.83	18.45	-66.12
83.31	425.72	18.19	-66.12
43.64	312.81	17.92	-66.12
39.06	223.39	17.66	-61.04
35.4	147.4	17.42	-61.04
13.43	83.31	17.17	-55.95
-20.45	37.23	16.95	-55.95
-48.83	11.6	16.72	-55.95
-60.12	0	16.5	-55.95
-58.29	-8.85	16.28	-50.86
-53.41	-21.97	16.07	-55.95
-52.8	-37.54	15.85	-55.95
-54.63	-50.35	15.63	-50.86
-55.24	-57.37	15.42	-50.86
-53.41	-60.42	15.22	-45.78
-50.66	-63.78	15.04	-45.78
-48.83	-69.89	14.85	-55.95
-47.91	-77.82	14.63	-55.95
-46.39	-84.84	14.4	-55.95
-43.95	-87.89	14.18	-50.86
-39.98	-86.06	13.98	-35.61
-34.79	-82.09	13.84	0
-28.69	-79.65	13.84	30.52
-22.28	-80.87	13.96	66.12
-16.17	-85.75	14.22	86.47
-11.9	-90.94	14.57	101.73
-11.6	-94.3	14.97	86.47
-15.87	-94.91	15.32	66.12
-23.5	-93.38	15.58	20.35
-31.13	-90.03	15.67	-20.35
-35.4	-85.75	15.58	-55.95
-35.71	-81.18	15.36	-91.56
-32.96	-76.6	14.99	-96.64
-28.99	-72.94	14.61	-86.47
-25.33	-70.8	14.26	-71.21
-22.28	-71.11	13.98	-40.69
-20.75	-74.16	13.81	-5.09
-21.06	-79.65	13.79(A)	25.43
-22.58	-86.36	13.9	40.69
-24.41	-91.25	14.06	50.86
-24.72	-92.47	14.26	45.78
-23.8	-90.33	14.45	30.52
-22.28	-86.67	14.57	20.35
-21.36	-84.53	14.65	5.09
-20.75	-85.75	14.67	-5.09
-20.45	-91.25	14.65	-10.17
-19.84	-99.18	14.61	-15.26
-18.62	-107.73	14.55	-10.17
-16.78	-114.14	14.51	-5.09
-13.12	-115.66	14.49	-5.09
-7.32	-111.69	14.47	5.09
0	-103.45	14.49	5.09
7.63	-95.52	14.51	5.09
13.43	-92.47	14.53	10.17
16.48	-95.52	14.57	10.17
17.7	-102.84	14.61	10.17
19.23	-109.56	14.65	10.17
21.97	-112.92	14.69	10.17
27.47	-113.53	14.73	10.17
33.87	-113.83	14.77	5.09
40.28	-115.05	14.79	15.26
45.47	-115.97	14.85	10.17
48.83	-114.75	14.89	15.26
50.66	-109.86	14.95	20.35
51.57	-102.54	15.04	20.35
52.8	-94.91	15.12	15.26
54.63	-87.89	15.18	20.35
57.07	-80.87	15.26	15.26
59.81	-73.24	15.32	15.26
61.34	-64.7	15.38	10.17
61.04	-54.93	15.42	10.17
57.37	-43.03	15.46	10.17
50.35	-28.99	15.5	10.17
41.2	-12.82	15.54	10.17
32.96	2.75	15.58	15.26
27.16	13.43	15.65	20.35
23.5	17.4	15.73	25.43
20.14	14.65	15.83	30.52
15.56	9.46	15.95	40.69
9.77	5.8	16.11	50.86
3.36	6.41	16.32	55.95
-2.14	10.68	16.54	55.95
-6.71	15.26	16.76	61.04
-11.6	16.78	17.01	66.12
-15.87	12.21	17.27	55.95
-18.92	3.36	17.5	61.04
-20.75	-5.19	17.74	61.04
-21.67	-10.07	17.99	66.12
-23.19	-10.07	18.25	66.12
-25.94	-9.16	18.51	66.12
-29.3	-10.38	18.78	76.3
-32.65	-14.65	19.08	76.3
-35.4	-18.01	19.39	71.21
-37.84	-15.87	19.67	61.04
-39.37	-7.02	19.92	40.69
-39.06	5.19	20.08	25.43
-36.32	15.56	20.18	5.09
-31.43	19.23	20.2	-5.09
-27.16	16.48	20.18	-5.09
-25.33	10.99	20.16	10.17
-26.25	8.85	20.2	30.52
-27.47	12.51	20.33	71.21
-26.86	20.75	20.61	106.82
-23.5	28.69	21.04	132.25
-18.01	33.26	21.57	152.59
-12.21	34.18	22.18	157.68
-7.63	33.57	22.81	137.33
-3.97	34.18	23.36	111.9
-0.61	37.54	23.8	76.3
2.44	43.64	24.11	45.78
4.58	50.35	24.29	10.17
6.1	56.15	24.33	-10.17
8.24	59.51	24.29	-10.17
11.6	59.2	24.25	-15.26
15.56	54.93	24.19	0
17.7	47.61	24.19	20.35
15.87	38.45	24.27	25.43
10.38	28.38	24.37	40.69
3.36	18.31	24.54	40.69
-1.53	8.85	24.7	30.52
-3.36	0.61	24.82	15.26
-3.05	-6.1	 24.88(V)	-5.09
-3.05	-10.68	24.86	-30.52
-5.8	-13.73	24.74	-45.78
-10.68	-16.48	24.56	-61.04
-16.17	-19.53	24.31	-71.21
-20.75	-22.89	24.03	-66.12
-23.5	-25.33	23.76	-66.12
-24.72	-25.33	23.5	-55.95
-24.41	-23.19	23.28	-45.78
-24.11	-21.36	23.09	-40.69
-24.11	-21.67	22.93	-40.69
-24.72	-24.72	22.77	-40.69
-25.33	-27.16	22.6	-50.86
-25.33	-24.72	22.4	-61.04
-23.5	-15.56	22.16	-61.04
-19.84	-1.22	21.91	-76.3
-15.87	13.12	21.61	-71.21
-13.43	21.67	21.32	-76.3
-12.82	22.28	21.02	-66.12
-13.73	18.01	20.75	-71.21
-14.04	12.82	20.47	-61.04
-13.12	10.07	20.22	-61.04
-10.68	9.16	19.98	-55.95
-7.93	9.16	19.76	-61.04
-5.19	8.85	19.51	-61.04
-1.83	8.85	19.27	-71.21
3.66	8.54	18.98	-71.21
12.82	7.02	18.7	-71.21
25.02	5.8	18.41	-76.3
40.59	11.6	18.11	-71.21
61.65	36.32	17.82	-76.3
95.83	95.52	17.52	-71.21
153.81	200.5	17.23	-66.12
242.61	350.65	16.97	-66.12
353.39	528.26	16.7	-66.12
454.41	697.02	16.44	-55.95
501.1	810.85	16.22	-55.95
464.17	833.13(R)	15.99	-55.95
351.56	762.02	15.77	-50.86
210.88	629.27	15.56	-55.95
99.18	478.52	15.34	-50.86
48.83	343.63	15.14	-50.86
46.08	233.76	14.93	-50.86
52.8	143.43	14.73	-50.86
39.37	69.89	14.53	-55.95
6.1	16.78	14.3	-55.95
-28.08	-15.26	14.08	-55.95
-45.78	-34.18	13.86	-61.04
-47.3	-50.35	13.61	-61.04
-42.72	-68.66	13.37	-55.95
-41.5	-84.84	13.14	-50.86
-43.64	-93.69	12.94	-50.86
-45.17	-96.13	12.74	-45.78
-45.17	-96.44	12.55	-40.69
-45.78	-97.96	12.39	-40.69
-49.13	-98.88	12.23	-25.43
-54.93	-94.6	12.13	-10.17
-59.81	-83.92	12.09	20.35
-61.04	-70.8	12.17	45.78
-57.68	-59.81	12.35	86.47
-51.27	-53.41	12.7	106.82
-43.95	-51.57	13.12	122.07
-38.15	-53.1	13.61	106.82
-33.87	-57.98	14.04	86.47
-31.43	-65.61	14.38	30.52
-30.82	-75.38	14.51	-15.26
-32.35	-84.53	14.45	-61.04
-36.01	-90.33	14.2	-101.73
-41.2	-90.94	13.79	-106.82
-44.86	-87.89	13.37	-101.73
-45.47	-84.84	12.96	-66.12
-41.81	-83.92	12.7	-30.52
-35.4	-85.75	12.57	20.35
-28.69	-89.11	12.66	55.95
-23.19	-93.69	12.88	76.3
-20.45	-100.1	13.18	86.47
-19.53	-108.34	13.53	76.3
-19.23	-117.8	13.84	50.86
-19.23	-126.04	14.04	25.43
-18.92	-131.84	14.14	-10.17
-17.7	-135.19	14.1	-25.43
-15.56	-137.63	14	-35.61
-12.21	-140.08	13.86	-30.52
-9.46	-142.52	13.73	-20.35
-8.85	-144.65	13.65	-5.09
-10.07	-147.09	13.63	15.26
-12.82	-150.76	13.69	30.52
-14.04	-156.25	13.81	30.52
-12.21	-162.96	13.94	35.61
-7.63	-169.68	14.08	25.43
-3.66	-173.95	14.18	10.17
-2.44	-175.48	14.22	5.09
-3.97	-175.48	14.24	-10.17
-5.49	-175.48	14.2	-15.26
-3.36	-176.39	14.14	-15.26
3.66	-179.14	14.08	-5.09
12.51	-181.58	14.06	0
19.53	-181.88	14.06	15.26
22.58	-179.14	14.12	25.43
23.8	-173.03	14.22	30.52
26.55	-164.79	14.34	35.61
32.04	-156.25	14.49	40.69
36.93	-149.23	14.65	30.52
38.76	-144.04	14.77	20.35
37.54	-139.47	14.85	10.17
35.1	-134.58	14.89	5.09
34.79	-128.78	14.91	-10.17
36.01	-122.07	14.87(A)	-5.09
36.01	-114.14	14.85	-10.17
32.96	-104.68	14.81	0
28.99	-93.08	14.81	0
25.63	-78.43	14.81	15.26
23.5	-60.42	14.87	30.52
20.75	-40.28	14.99	40.69
16.17	-22.28	15.16	50.86
9.77	-9.77	15.36	61.04
4.27	-4.58	15.61	66.12
0.92	-4.88	15.87	76.3
-0.61	-7.93	16.17	76.3
-2.44	-10.38	16.48	81.38
-4.88	-10.99	16.81	81.38
-7.63	-10.07	17.13	81.38
-9.46	-7.93	17.46	81.38
-10.99	-5.8	17.78	86.47
-12.82	-3.66	18.13	86.47
-16.17	-3.36	18.47	86.47
-20.75	-4.58	18.82	91.56
-25.02	-7.32	19.19	96.64
-28.38	-10.38	19.57	96.64
-30.82	-12.82	19.96	91.56
-32.65	-13.12	20.33	96.64
-33.26	-10.38	20.71	86.47
-32.65	-5.19	21.06	76.3
-31.43	0.61	21.36	76.3
-31.13	5.49	21.67	71.21
-32.96	7.63	21.95	61.04
-36.32	7.63	22.2	61.04
-39.06	6.71	22.44	45.78
-39.37	7.32	22.62	45.78
-35.71	10.07	22.81	45.78
-28.69	14.34	22.99	61.04
-20.75	18.01	23.23	76.3
-15.56	19.84	23.54	106.82
-14.04	18.31	23.97	127.16
-14.95	14.04	24.48	142.42
-16.17	7.93	25.05	142.42
-15.26	0.31	25.62	142.42
-12.51	-8.24	26.19	116.99
-9.77	-17.09	26.65	86.47
-8.85	-24.72	27	66.12
-10.07	-29.91	27.26	35.61
-12.21	-32.04	27.41	15.26
-14.04	-31.74	27.47	10.17
-14.95	-30.82	27.51	10.17
-13.43	-30.21	27.55	20.35
-10.07	-29.6	27.63	25.43
-5.49	-28.38	27.73	30.52
-1.22	-26.55	27.85	40.69
1.83	-24.72	28.02	35.61
2.44	-23.5	28.16	30.52
1.83	-22.89	28.28	10.17
0.61	-22.58	 28.32(V)	-5.09
0	-21.97	28.3	-20.35
0.61	-21.06	28.22	-45.78
1.83	-20.14	28.04	-55.95
3.66	-19.23	27.81	-71.21
4.27	-18.01	27.53	-76.3
3.05	-18.01	27.22	-71.21
-0.92	-18.62	26.94	-71.21
-6.71	-19.84	26.65	-61.04
-12.21	-21.06	26.41	-55.95
-16.17	-21.36	26.19	-50.86
-17.4	-19.23	25.98	-45.78
-16.17	-15.26	25.8	-45.78
-14.34	-9.77	25.62	-50.86
-14.04	-4.27	25.41	-50.86
-16.48	-0.61	25.21	-61.04
-21.36	-0.31	24.96	-61.04
-26.25	-2.14	24.72	-66.12
-29.6	-4.58	24.46	-66.12
-28.99	-5.49	24.19	-66.12
-25.33	-4.58	23.93	-71.21
-20.14	-3.97	23.64	-71.21
-16.17	-4.27	23.36	-71.21
-15.87	-5.19	23.07	-71.21
-18.92	-3.97	22.79	-76.3
-23.19	1.22	22.48	-66.12
-26.25	8.54	22.22	-66.12
-26.86	14.95	21.95	-55.95
-26.25	17.09	21.73	-50.86
-25.94	14.34	21.53	-40.69
-26.25	8.54	21.36	-30.52
-25.63	2.75	21.24	-25.43
-22.89	-0.61	21.14	-20.35
-18.92	-1.83	21.06	-20.35
-15.87	-3.36	20.98	-30.52
-15.87	-7.32	20.85	-45.78
-18.62	-14.04	20.67	-55.95
-21.36	-21.97	20.45	-76.3
-22.28	-27.77	20.14	-81.38
-20.14	-29.6	19.82	-86.47
-16.17	-28.69	19.47	-81.38
-10.99	-27.47	19.15	-71.21
-5.19	-27.47	18.86	-50.86
0	-28.69	18.66	-35.61
3.05	-29.6	18.51	-15.26
3.05	-28.69	18.45	5.09
0	-25.02	18.47	15.26
-3.36	-20.14	18.54	25.43
-4.27	-15.56	18.64	30.52
-2.44	-13.12	18.76	30.52
0.31	-12.82	18.88	30.52
1.53	-14.04	19	25.43
0.61	-14.04	19.1	10.17
-0.92	-11.9	19.15	5.09
-1.83	-7.63	19.17	-15.26
-1.53	-2.44	19.1	-25.43
-1.22	2.14	19	-30.52
-0.92	4.27	18.88	-40.69
0.61	3.97	18.72	-45.78
7.02	3.97	18.54	-35.61
20.14	10.38	18.39	-30.52
41.5	33.87	18.27	-25.43
76.9	86.36	18.17	-15.26
134.28	177.61	18.11	-10.17
218.51	308.84	18.07	-5.09
321.66	465.7	18.05	0
415.65	616.46	18.05	10.17
460.21	719.91	18.09	10.17
427.55	742.49(R)	18.13	20.35
325.32	680.24	18.21	25.43
195.31	561.22	18.31	30.52
90.03	426.64	18.43	35.61
39.37	308.53	18.58	35.61
33.87	216.37	18.72	30.52
40.28	144.35	18.84	35.61
32.04	86.98	18.98	25.43
7.02	46.08	19.08	15.26
-20.75	21.97	19.15	10.17
-36.93	7.32	19.19	-5.09
-39.98	-7.63	19.17	-20.35
-37.84	-27.77	19.08	-40.69
-36.93	-48.83	18.92	-61.04
-39.06	-62.56	18.68	-71.21
-40.89	-65.61	18.39	-76.3
-41.2	-61.65	18.09	-81.38
-39.67	-57.37	17.76	-76.3
-36.93	-57.37	17.46	-50.86
-33.26	-63.17	17.25	-30.52
-30.21	-72.94	17.13	10.17
-29.3	-83.31	17.17	50.86
-31.13	-90.33	17.38	86.47
-33.57	-91.55	17.72	116.99
-34.48	-87.28	18.19	137.33
-32.65	-81.79	18.74	132.25
-28.99	-78.13	19.27	106.82
-25.63	-77.51	19.69	71.21
-24.11	-79.04	19.98	20.35
-24.72	-80.87	20.06	-25.43
-26.55	-81.79	19.96	-61.04
-28.99	-82.7	19.72	-76.3
-31.74	-84.84	19.41	-71.21
-34.79	-88.5	19.13	-45.78
-37.84	-93.69	18.94	-10.17
-40.28	-99.18	18.9	35.61
-41.5	-104.06	19.04	76.3
-41.2	-106.51	19.35	96.64
-39.06	-105.9	19.74	106.82
-36.93	-102.54	20.16	96.64
-35.71	-97.35	20.55	76.3
-35.4	-91.86	20.85	45.78
-35.71	-87.89	21.04	15.26
-35.71	-87.28	21.1	-10.17
-35.1	-89.72	21.06	-30.52
-34.18	-94.91	20.94	-40.69
-34.18	-101.32	20.77	-30.52
-35.4	-107.42	20.65	-25.43
-37.54	-112.3	20.55	-15.26
-39.37	-114.75	20.49	5.09
-39.06	-114.44	20.51	20.35
-36.01	-112.61	20.59	20.35
-30.52	-111.08	20.67	25.43
-24.72	-111.69	20.77	15.26
-19.53	-115.36	20.83	10.17
-16.17	-119.63	20.87	0
-13.43	-123.6	20.87	-5.09
-10.38	-126.04	20.85	-10.17
-7.32	-127.87	20.81	-5.09
-4.27	-130.31	20.79	-5.09
-2.44	-133.67	20.77	5.09
-2.14	-137.63	20.79	15.26
-2.14	-141.91	20.85	30.52
-1.83	-145.26	20.98	35.61
0.31	-147.09	21.12	50.86
4.58	-146.18	21.32	61.04
10.07	-142.52	21.57	66.12
15.87	-136.11	21.83	71.21
21.36	-127.87	22.12	71.21
25.94	-117.8	22.4	81.38
28.69	-107.12	22.73	81.38
29.6	-96.44	23.05	86.47
29.91	-85.75	23.4	96.64
30.52	-74.77	23.78	111.9
32.65	-64.39	24.23	116.99
35.1	-53.71	24.7	127.16
35.4	-44.25	25.21	132.25
32.35	-35.1	25.74	122.07
27.16	-25.02	26.23	111.9
22.58	-12.51	26.67	91.56
19.23	2.14	27.04	66.12
16.78	15.87	27.3	45.78
13.73	25.02	27.49	30.52
9.46	27.16	27.61	20.35
4.58	23.5	27.69	15.26
0.92	18.01	27.75	20.35
-1.83	14.04	27.83	15.26
-3.97	13.12	27.89	25.43
-6.41	13.12	28	25.43
-8.85	12.51	28.1	15.26
-11.29	11.29	28.16	10.17
-13.12	10.68	28.2	0
-14.04	12.51	28.2	0
-13.73	16.48	28.2	5.09
-12.21	21.06	28.22	25.43
-9.77	24.41	28.32	61.04
-7.93	26.86	28.57	106.82
-8.24	28.08	28.99	157.68
-10.99	28.08	29.62	193.29
-15.26	27.47	30.4	213.63
-18.92	26.25	31.25	208.54
-19.53	24.41	32.09	198.37
-17.09	22.89	32.88	178.03
-13.12	21.67	33.59	152.59
-8.54	20.14	34.2	137.33
-3.66	18.31	34.75	116.99
0.31	15.87	35.22	101.73
2.14	13.43	35.63	91.56
0.31	11.29	35.99	71.21
-4.88	10.07	36.28	50.86
-11.29	9.77	36.48	35.61
-15.26	10.07	36.62	10.17
-14.65	10.38	 36.66(V)	-10.17
-10.38	10.68	36.62	-20.35
-5.49	9.77	36.54	-30.52
-2.14	6.1	36.42	-35.61
-1.22	0	36.28	-30.52
-1.83	-7.93	36.15	-20.35
-2.14	-14.04	36.07	-15.26
-0.92	-14.95	36.01	-5.09
1.22	-11.6	35.99	10.17
4.27	-6.71	36.03	15.26
7.02	-4.88	36.09	20.35
7.63	-7.63	36.17	15.26
6.71	-13.12	36.24	15.26
5.19	-17.4	36.3	0
4.27	-18.62	36.3	-15.26
5.19	-16.17	36.24	-30.52
7.93	-12.51	36.11	-50.86
10.99	-9.16	35.91	-71.21
12.21	-6.41	35.63	-96.64
10.99	-3.05	35.24	-111.9
7.93	2.14	34.79	-127.16
5.19	7.93	34.28	-142.42
3.97	13.73	33.71	-152.59
4.58	18.62	33.1	-157.68
6.41	21.36	32.47	-167.85
7.93	23.19	31.8	-167.85
8.54	23.8	31.13	-167.85
7.63	23.8	30.46	-157.68
5.8	23.8	29.83	-147.51
2.75	24.72	29.24	-137.33
-0.61	26.25	28.69	-116.99
-3.36	28.08	28.22	-96.64
-4.58	29.3	27.83	-86.47
-4.27	30.52	27.49	-66.12
-3.05	32.04	27.22	-55.95
-2.14	33.87	27	-45.78
-2.14	34.18	26.82	-45.78
-2.75	30.82	26.63	-40.69
-3.05	23.8	26.47	-40.69
-2.75	15.26	26.31	-50.86
-2.75	7.93	26.1	-61.04
-3.97	3.05	25.86	-66.12
-6.71	-0.31	25.6	-71.21
-10.07	-3.97	25.31	-81.38
-12.82	-10.38	24.98	-86.47
-14.95	-20.45	24.64	-86.47
-15.87	-32.04	24.29	-81.38
-16.48	-41.81	23.97	-71.21
-17.09	-46.08	23.68	-66.12
-17.4	-44.56	23.42	-50.86
-17.09	-38.45	23.21	-45.78
-15.87	-32.04	23.03	-30.52
-14.04	-27.77	22.91	-25.43
-12.82	-28.08	22.81	-15.26
-12.51	-32.35	22.75	-15.26
-13.43	-38.15	22.69	-10.17
-14.65	-43.03	22.64	-20.35
-14.65	-44.86	22.56	-25.43
-12.82	-43.33	22.46	-45.78
-9.46	-39.37	22.28	-55.95
-6.1	-33.57	22.05	-76.3
-4.88	-27.77	21.75	-91.56
-6.41	-22.58	21.38	-101.73
-10.68	-19.23	20.98	-106.82
-14.95	-18.01	20.55	-106.82
-17.09	-18.01	20.12	-96.64
-15.87	-18.62	19.74	-76.3
-13.12	-19.23	19.43	-61.04
-11.29	-18.92	19.19	-35.61
-11.6	-17.09	19.04	-15.26
-13.12	-13.12	18.98	-5.09
-14.95	-8.54	18.96	5.09
-16.17	-5.19	18.98	10.17
-16.78	-4.88	19.02	5.09
-17.09	-7.02	19.04	0
-15.87	-8.24	19.04	-5.09
-14.04	-6.1	19.02	-15.26
-12.82	-0.31	18.96	-15.26
-13.43	7.02	18.9	-15.26
-15.26	13.73	18.84	-5.09
-15.56	18.31	18.82	5.09
-12.21	21.06	18.84	15.26
-5.49	21.06	18.9	30.52
2.14	17.4	19.02	35.61
7.63	10.07	19.17	35.61
9.77	0.31	19.31	35.61
9.46	-8.24	19.45	15.26
8.24	-13.12	19.51	0
7.02	-12.82	19.51	-20.35
5.49	-7.02	19.43	-35.61
2.75	1.83	19.29	-50.86
-1.22	10.07	19.08	-50.86
-5.19	15.26	18.88	-45.78
-7.63	15.87	18.7	-30.52
-7.02	12.51	18.58	-10.17
-4.27	7.93	18.54	10.17
-1.83	3.36	18.58	30.52
-2.14	-1.53	18.7	40.69
-5.8	-6.71	18.86	35.61
-10.38	-12.51	19	35.61
-12.51	-17.4	19.15	15.26
-10.07	-21.06	19.21	5.09
-4.88	-23.19	19.23	-10.17
-0.92	-24.11	19.19	-20.35
-1.22	-25.02	19.1	-15.26
-5.19	-25.94	19.04	-5.09
-10.38	-26.55	19.02	0
-14.95	-27.16	19.02	15.26
-17.7	-27.47	19.08	20.35
-19.53	-26.55	19.17	15.26
-20.45	-24.41	19.23	5.09
-20.14	-21.36	19.25	-5.09
-18.01	-18.01	19.23	-30.52
-14.95	-15.26	19.1	-50.86
-11.9	-13.43	18.9	-61.04
-10.38	-12.82	18.66	-66.12
-11.29	-13.73	18.39	-61.04
-13.12	-15.26	18.15	-50.86
-14.95	-16.48	17.94	-25.43
-15.87	-14.95	17.84	-10.17
-15.56	-10.07	17.8	15.26
-13.73	-3.36	17.86	30.52
-10.68	2.14	17.99	45.78
-7.02	4.58	18.17	55.95
-3.05	4.88	18.39	50.86
2.14	5.8	18.6	50.86
10.07	10.07	18.8	45.78
22.28	21.67	18.98	35.61
38.76	43.95	19.13	25.43
60.42	83.31	19.23	15.26
92.77	147.71	19.29	10.17
144.65	244.14	19.33	5.09
223.39	374.45	19.35	0
324.4	527.34	19.35	0
423.89	673.22	19.35	0
484.92	771.79	19.35	-5.09
477.91	789.79(R)	19.33	-10.17
402.83	721.13	19.29	-15.26
289.92	592.65	19.23	-25.43
184.33	445.56	19.13	-35.61
117.19	313.72	18.98	-40.69
88.5	209.96	18.82	-45.78
74.46	130.92	18.64	-35.61
53.71	72.02	18.49	-25.43
21.97	32.04	18.39	-15.26
-9.46	8.85	18.33	5.09
-28.38	-6.1	18.35	15.26
-33.26	-24.41	18.41	20.35
-31.74	-51.27	18.49	20.35
-32.65	-81.48	18.58	5.09
-38.15	-105.9	18.6	-20.35
-45.47	-118.41	18.51	-40.69
-51.27	-121.15	18.35	-61.04
-54.02	-120.54	18.11	-71.21
-53.41	-120.24	17.82	-71.21
-50.66	-120.24	17.54	-45.78
-47.91	-118.71	17.35	-20.35
-47	-115.66	17.27(A)	30.52
-47.61	-112	17.4	71.21
-49.44	-109.25	17.68	127.16
-50.35	-107.73	18.19	162.77
-49.13	-105.9	18.84	198.37
-46.69	-101.62	19.63	213.63
-45.17	-94.6	20.49	203.46
-45.47	-84.84	21.3	178.03
-47	-74.16	22.01	122.07
-48.22	-65.92	22.5	61.04
-47.61	-61.65	22.75	-10.17
-44.86	-61.65	22.71	-76.3
-42.11	-64.09	22.4	-111.9
-40.28	-65.92	21.95	-137.33
-39.98	-65.31	21.4	-132.25
-39.67	-63.78	20.87	-106.82
-38.45	-63.48	20.45	-66.12
-36.32	-66.22	20.18	-25.43
-35.1	-72.33	20.08	10.17
-35.4	-79.04	20.12	40.69
-36.62	-84.84	20.28	61.04
-37.23	-89.72	20.53	61.04
-36.62	-95.83	20.77	55.95
-35.71	-103.76	21	45.78
-35.4	-112.3	21.18	35.61
-36.32	-119.63	21.32	30.52
-36.93	-122.99	21.44	25.43
-35.71	-123.29	21.55	30.52
-32.35	-123.29	21.67	30.52
-28.38	-125.73	21.79	40.69
-25.33	-131.53	21.95	30.52
-24.11	-138.85	22.08	25.43
-23.8	-145.26	22.18	15.26
-23.8	-149.54	22.24	-5.09
-23.19	-152.59	22.22	-20.35
-21.67	-155.94	22.14	-30.52
-19.23	-160.22	22.01	-40.69
-16.17	-165.71	21.85	-30.52
-13.43	-171.2	21.73	-20.35
-11.29	-176.39	21.65	-10.17
-9.46	-181.27	21.61	15.26
-7.63	-185.55	21.67	25.43
-6.41	-187.07	21.77	40.69
-6.1	-184.33	21.93	45.78
-6.71	-175.78	22.12	50.86
-7.02	-163.27	22.32	45.78
-7.32	-149.54	22.5	35.61
-7.32	-137.63	22.64	35.61
-7.32	-127.56	22.79	40.69
-6.71	-118.1	22.95	40.69
-4.88	-106.51	23.11	55.95
-0.92	-92.16	23.34	61.04
3.66	-75.99	23.58	76.3
7.93	-59.2	23.89	76.3
12.51	-43.33	24.19	81.38
17.4	-28.69	24.52	71.21
22.28	-14.34	24.8	66.12
26.55	-0.61	25.07	55.95
27.77	12.21	25.29	50.86
26.25	22.89	25.49	40.69
22.89	30.21	25.66	45.78
20.14	33.87	25.84	35.61
18.31	34.18	25.98	40.69
16.17	32.35	26.14	45.78
12.82	29.3	26.33	45.78
8.85	26.25	26.51	50.86
4.88	23.8	26.71	61.04
2.44	21.67	26.96	76.3
0.61	19.53	27.26	91.56
0	17.09	27.63	96.64
0.31	14.04	28.02	111.9
2.14	10.68	28.46	111.9
5.19	6.71	28.91	106.82
7.93	3.05	29.34	106.82
7.93	0.31	29.77	86.47
6.1	-1.22	30.11	61.04
3.05	-2.14	30.36	40.69
0.31	-3.97	30.52	25.43
-0.92	-7.32	30.62	20.35
-0.61	-12.82	30.7	35.61
0.61	-18.01	30.84	61.04
2.14	-20.45	31.09	91.56
3.36	-16.78	31.45	116.99
3.97	-7.02	31.92	142.42
3.97	6.1	32.49	142.42
3.66	18.01	33.06	137.33
2.44	25.02	33.61	111.9
1.22	27.16	34.06	81.38
-0.31	26.25	34.38	45.78
-1.53	26.55	34.57	20.35
-2.44	29.3	34.65	0
-3.05	33.87	34.65	-10.17
-3.36	38.76	34.61	-10.17
-2.75	43.64	34.57	5.09
-1.53	47.3	34.59	10.17
0.31	49.74	34.63	30.52
2.44	50.66	34.75	35.61
3.97	49.13	34.89	45.78
4.58	46.39	35.08	35.61
4.58	43.64	35.22	35.61
5.19	41.81	35.36	25.43
6.71	41.5	35.46	10.17
9.46	42.72	 35.50(V)	0
11.6	45.17	35.5	-10.17
11.6	46.39	35.46	-15.26
9.77	44.56	35.4	-30.52
5.8	38.76	35.28	-45.78
2.14	29.91	35.1	-55.95
0.61	21.97	34.87	-71.21
1.22	17.4	34.59	-86.47
2.75	15.87	34.24	-101.73
3.36	15.26	33.84	-106.82
2.44	12.82	33.41	-111.9
0.92	8.54	32.96	-111.9
0	3.97	32.51	-101.73
0.31	0	32.11	-101.73
-0.92	-3.66	31.7	-91.56
-6.41	-7.63	31.33	-81.38
-15.87	-11.29	31.01	-81.38
-25.02	-13.43	30.68	-76.3
-29.6	-15.26	30.38	-71.21
-26.86	-17.7	30.09	-81.38
-19.53	-21.97	29.77	-86.47
-13.12	-26.86	29.42	-86.47
-11.29	-28.69	29.07	-91.56
-14.65	-22.89	28.71	-96.64
-19.53	-9.46	28.32	-96.64
-21.97	7.32	27.93	-91.56
-20.14	21.67	27.57	-91.56
-14.65	28.99	27.2	-81.38
-9.16	28.69	26.88	-76.3
-5.49	25.33	26.57	-76.3
-4.88	23.19	26.27	-76.3
-5.8	23.8	25.96	-76.3
-6.41	25.02	25.66	-76.3
-3.36	23.19	25.35	-81.38
4.88	18.31	25.03	-81.38
18.62	17.7	24.7	-76.3
37.54	32.04	24.39	-81.38
65	74.77	24.07	-76.3
108.64	157.47	23.76	-71.21
177.31	283.81	23.48	-71.21
273.13	446.78	23.19	-66.12
380.86	620.73	22.93	-61.04
465.09	764.47	22.69	-61.04
489.2	836.18(R)	22.44	-50.86
437.32	815.12	22.24	-55.95
328.67	714.72	22.01	-50.86
209.35	572.51	21.81	-45.78
122.99	427.86	21.63	-50.86
83.31	304.57	21.42	-45.78
71.41	205.99	21.24	-40.69
59.2	127.56	21.08	-40.69
33.87	68.05	20.92	-40.69
2.75	28.69	20.75	-40.69
-20.14	3.66	20.59	-40.69
-29.3	-15.87	20.43	-45.78
-31.43	-37.54	20.24	-55.95
-35.1	-60.12	20.02	-55.95
-42.42	-77.21	19.8	-66.12
-49.13	-85.14	19.53	-71.21
-52.8	-85.75	19.25	-71.21
-53.71	-85.45	18.96	-66.12
-54.32	-87.89	18.7	-55.95
-55.85	-91.55	18.47	-55.95
-57.37	-92.77	18.25	-45.78
-57.37	-90.03	18.07	-50.86
-56.15	-84.53	17.86	-45.78
-53.41	-78.43	17.68	-45.78
-50.35	-72.94	17.5	-25.43
-47.3	-66.83	17.4	-10.17
-44.86	-57.98	17.35	20.35
-43.95	-46.69	17.44	50.86
-44.25	-34.48	17.64	86.47
-44.25	-24.41	17.99	106.82
-43.95	-18.62	18.41	122.07
-43.33	-17.4	18.9	122.07
-43.03	-18.92	19.39	106.82
-43.33	-22.28	19.82	76.3
-44.25	-26.25	20.12	45.78
-45.78	-30.52	20.31	0
-46.39	-33.26	20.31	-30.52
-45.78	-33.87	20.18	-55.95
-43.95	-31.74	19.96	-55.95
-41.81	-28.69	19.74	-55.95
-39.37	-26.55	19.51	-30.52
-36.93	-26.86	19.39	-10.17
-34.79	-29.6	19.35	15.26
-33.26	-33.87	19.41	25.43
-32.96	-37.84	19.51	35.61
-34.18	-40.59	19.65	35.61
-35.1	-42.42	19.8	20.35
-33.87	-44.56	19.88	5.09
-29.91	-48.22	19.9	-5.09
-24.41	-53.71	19.88	-20.35
-20.14	-60.12	19.8	-25.43
-19.23	-66.83	19.69	-25.43
-20.45	-73.55	19.59	-20.35
-22.58	-82.09	19.51	-10.17
-23.5	-93.38	19.47	0
-21.97	-106.81	19.47	10.17
-18.92	-120.54	19.51	20.35
-15.26	-132.75	19.59	25.43
-11.9	-141.91	19.69	25.43
-7.93	-148.01	19.8	30.52
-2.44	-151.67	19.92	30.52
3.36	-154.11	20.04	25.43
8.85	-157.17	20.14	25.43
12.82	-161.74	20.24	25.43
14.65	-168.15	20.35	25.43
16.48	-173.65	20.45	20.35
19.23	-173.65	20.53	20.35
23.19	-166.02	20.61	20.35
26.55	-150.15	20.69	15.26
28.69	-129.7	20.75	15.26
28.69	-108.34	20.81	15.26
27.47	-87.89	20.87	15.26
26.86	-68.97	20.94	25.43
27.47	-51.27	21.04	30.52
29.6	-32.96	21.16	35.61
30.82	-14.34	21.3	50.86
29.3	4.58	21.51	50.86
25.02	22.89	21.71	50.86
18.62	38.45	21.91	55.95
12.82	49.74	22.14	50.86
10.07	56.46	22.34	45.78
9.16	58.9	22.52	45.78
8.85	59.2	22.71	45.78
7.02	59.2	22.89	50.86
3.36	59.2	23.09	50.86
-1.22	59.81	23.3	61.04
-5.49	60.42	23.54	66.12
-9.16	60.73	23.8	66.12
-12.21	60.42	24.07	76.3
-15.26	57.98	24.37	71.21
-18.31	53.1	24.66	71.21
-21.67	45.78	24.94	61.04
-24.72	36.32	25.19	55.95
-27.16	25.02	25.41	35.61
-29.91	13.43	25.55	15.26
-33.26	4.27	25.62	0
-38.15	-0.61	25.62	-25.43
-43.64	0.61	25.51	-35.61
-47	6.1	25.37	-25.43
-45.78	12.51	25.27	0
-39.37	15.87	25.27	40.69
-30.82	14.95	25.43	91.56
-23.19	10.99	25.8	137.33
-18.01	7.63	26.35	172.94
-14.34	7.63	27.04	183.11
-10.99	12.21	27.77	172.94
-8.54	20.75	28.46	147.51
-8.24	30.52	29.05	106.82
-11.29	39.06	29.48	66.12
-16.48	44.56	29.75	30.52
-21.67	46.39	29.87	0
-23.19	46.08	29.87	-10.17
-21.06	46.39	29.83	-5.09
-16.48	49.13	29.81	0
-13.12	54.02	29.81	20.35
-12.21	59.2	29.89	40.69
-14.34	62.56	30.05	50.86
-16.48	63.78	30.25	50.86
-16.17	64.09	30.46	50.86
-13.73	65	30.66	35.61
-10.38	66.83	30.8	15.26
-8.54	68.05	 30.86(V)	-5.09
-9.16	67.75	30.84	-30.52
-10.68	65	30.72	-40.69
-11.9	61.34	30.56	-50.86
-11.29	57.98	30.36	-50.86
-9.46	56.15	30.15	-50.86
-7.63	54.63	29.95	-45.78
-7.32	52.49	29.77	-45.78
-7.93	47.91	29.58	-40.69
-9.77	41.5	29.42	-45.78
-10.68	35.4	29.24	-45.78
-9.46	31.74	29.05	-55.95
-5.8	31.74	28.83	-66.12
-1.22	34.79	28.57	-76.3
3.05	38.15	28.26	-81.38
4.58	40.28	27.93	-91.56
3.36	40.28	27.57	-91.56
0	39.06	27.2	-96.64
-4.58	37.23	26.82	-91.56
-9.77	36.01	26.45	-86.47
-14.95	35.4	26.1	-81.38
-19.53	35.1	25.78	-76.3
-22.58	34.48	25.47	-66.12
-24.41	33.26	25.21	-71.21
-25.33	31.43	24.92	-66.12
-26.55	29.91	24.66	-76.3
-27.77	28.08	24.35	-76.3
-28.69	25.33	24.05	-81.38
-28.38	20.75	23.72	-81.38
-26.55	14.04	23.4	-81.38
-24.72	6.71	23.07	-76.3
-22.89	0.31	22.77	-66.12
-19.84	-3.05	22.5	-66.12
-13.43	0.92	22.24	-61.04
-1.53	18.01	21.99	-61.04
19.84	56.46	21.75	-66.12
56.76	126.95	21.49	-66.12
116.88	235.6	21.22	-71.21
203.55	381.47	20.94	-71.21
309.14	549.32	20.65	-76.3
406.19	706.79	20.35	-76.3
457.46	812.99	20.04	-76.3
436.71	835.88(R)	19.74	-71.21
350.04	771.79	19.45	-76.3
233.46	646.06	19.15	-66.12
133.97	498.96	18.88	-55.95
77.82	364.38	18.66	-55.95
57.68	256.65	18.43	-45.78
46.69	173.65	18.25	-35.61
25.02	111.69	18.11	-40.69
-6.1	68.97	17.94	-35.61
-32.65	42.11	17.8	-45.78
-43.33	23.19	17.62	-50.86
-40.28	4.88	17.42	-66.12
-34.48	-15.87	17.15	-71.21
-34.79	-35.4	16.87	-86.47
-41.5	-46.69	16.52	-86.47
-49.74	-48.22	16.17	-76.3
-54.02	-44.25	15.87	-66.12
-53.71	-40.89	15.61	-50.86
-50.96	-40.89	15.4	-35.61
-48.83	-43.03	15.26	-30.52
-48.52	-45.47	15.14	-30.52
-49.13	-46.39	15.02	-25.43
-49.74	-46.39	14.91	-20.35
-50.66	-46.08	14.83	-10.17
-52.8	-46.39	14.79	10.17
-57.07	-47.3	14.83	30.52
-62.26	-49.13	14.95	55.95
-67.14	-51.88	15.18	71.21
-69.89	-55.54	15.46	86.47
-70.5	-59.51	15.81	76.3
-68.66	-63.17	16.11	66.12
-65.31	-65.31	16.38	45.78
-60.73	-65.31	16.56	10.17
-55.54	-64.09	16.6	-5.09
-51.57	-63.17	16.58	-30.52
-49.13	-63.48	16.46	  N/A
