-1.22	-72.33
-2.14	-70.19
-2.44	-62.26
-2.14	-53.71
-1.83	-49.44
-2.14	-50.66
-4.27	-55.24
-7.32	-59.2
-8.54	-56.15
-6.1	-37.54
-0.31	7.93
4.88	91.55
6.41	223.69
6.1	410.46
11.29	644.53
31.13	892.03
66.22	1095.58
104.37	1192.32
127.56	1150.21
120.54	989.69
83.01	772.09
28.38	563.35
-26.25	399.78
-67.44	284.42
-89.11	203.25
-92.16	140.38
-79.96	87.59
-57.07	38.76
-29.91	-7.93
-6.71	-47.3
5.8	-68.36
7.93	-67.14
3.66	-51.27
-0.31	-36.62
-1.22	-33.57
0.61	-41.81
3.36	-53.41
4.88	-61.34
5.8	-63.17
6.1	-60.12
5.8	-53.1
5.49	-45.47
5.19	-40.89
5.8	-42.11
7.93	-48.52
11.29	-55.85
14.04	-60.12
15.26	-58.9
14.34	-52.19
13.12	-42.42
14.04	-32.04
18.01	-24.41
23.19	-21.67
26.25	-23.19
26.86	-25.63
25.94	-25.63
27.47	-22.28
32.04	-16.78
38.45	-10.68
43.95	-6.1
46.08	-2.75
45.17	-0.92
42.42	0
39.67	1.83
38.15	5.8
39.06	13.43
43.03	22.58
48.83	29.6
54.32	32.65
57.37	35.1
58.59	42.11
59.51	58.59
61.95	82.09
66.22	106.2
70.8	123.9
74.16	134.58
75.68	141.91
76.9	152.59
79.65	169.98
83.62	192.87
88.81	216.67
92.77	234.99
94.6	243.84
93.69	242
89.72	231.93
83.31	219.42
75.68	207.82
68.66	197.14
64.09	185.24
61.65	171.2
59.2	155.64
54.93	140.69
47.91	126.04
38.76	108.03
29.91	85.45
23.8	61.04
20.45	41.2
19.23	30.52
18.92	27.16
18.92	24.41
18.62	18.31
16.17	8.85
11.29	0.92
3.97	-1.83
-2.44	-2.75
-6.41	-6.71
-7.63	-15.87
-8.54	-26.55
-10.07	-31.43
-12.21	-25.63
-13.43	-12.82
-12.51	-3.97
-10.68	-8.85
-9.16	-28.69
-10.07	-51.27
-12.21	-59.2
-14.34	-42.11
-15.26	-7.93
-14.34	20.75
-12.51	23.8
-10.68	-2.75
-9.16	-40.28
-8.85	-62.56
-10.99	-57.98
-14.34	-37.54
-17.09	-23.8
-17.09	-30.21
-14.34	-48.22
-10.99	-56.46
-9.16	-43.33
-9.77	-19.84
-10.68	-9.16
-10.99	-25.33
-9.77	-60.73
-7.63	-90.64
-5.49	-93.99
-3.66	-68.36
-2.44	-30.52
-2.44	-1.22
-2.75	2.75
-3.66	-23.19
-3.66	-67.14
-3.05	-105.29
-1.83	-116.88
0	-93.99
1.53	-47.61
2.44	-3.36
2.14	16.48
1.22	4.27
-0.92	-30.21
-3.36	-67.14
-6.71	-88.2
-10.99	-85.14
-14.65	-65.31
-15.87	-45.78
-13.73	-40.28
-10.07	-52.8
-7.32	-74.16
-7.32	-89.42
-9.16	-88.5
-11.29	-72.63
-12.51	-51.88
-13.43	-37.23
-14.04	-34.79
-14.95	-42.72
-15.56	-52.49
-15.87	-57.37
-16.17	-54.93
-17.09	-50.05
-17.4	-50.35
-15.56	-60.42
-12.21	-76.6
-9.46	-88.5
-9.46	-86.06
-12.51	-67.75
-15.87	-43.64
-17.09	-28.69
-14.34	-33.26
-9.46	-54.63
-4.88	-77.82
-2.14	-86.67
-1.53	-74.46
-1.53	-50.35
-2.44	-32.65
-4.27	-33.57
-7.02	-49.74
-9.16	-64.39
-9.16	-63.78
-6.71	-46.08
-4.27	-23.5
-3.36	-13.12
-4.58	-21.97
-6.1	-43.64
-6.41	-64.7
-6.41	-74.16
-7.02	-68.05
-9.77	-51.27
-13.43	-34.18
-16.17	-25.33
-16.17	-27.47
-14.65	-36.62
-13.43	-46.08
-12.82	-50.05
-11.29	-47.91
-8.54	-43.33
-5.8	-42.11
-5.49	-47
-8.54	-55.54
-14.04	-61.34
-18.01	-60.12
-18.31	-51.27
-14.95	-38.76
-10.99	-27.77
-8.54	-24.11
-8.85	-30.52
-9.77	-45.17
-10.38	-62.26
-9.16	-72.02
-7.02	-68.05
-5.19	-52.19
-5.19	-34.48
-6.71	-25.33
-7.93	-28.38
-7.32	-37.84
-4.88	-43.95
-2.44	-41.5
0	-32.96
1.83	-24.41
3.05	-22.58
3.05	-28.99
1.53	-37.54
-1.83	-39.37
-5.19	-32.35
-6.71	-21.97
-6.41	-18.92
-6.1	-26.86
-7.93	-39.98
-11.6	-47.3
-14.95	-43.33
-15.26	-32.04
-12.21	-23.19
-7.02	-22.28
-3.97	-28.38
-5.19	-37.54
-10.07	-44.56
-17.09	-46.69
-21.97	-44.56
-23.19	-41.5
-21.06	-42.42
-17.7	-48.52
-15.87	-55.54
-15.87	-57.98
-17.09	-54.02
-18.01	-46.39
-18.62	-39.06
-18.01	-34.18
-17.4	-29.91
-16.48	-25.02
-15.26	-19.53
-14.34	-14.65
-13.73	-10.68
-13.73	-7.63
-14.04	-7.32
-14.34	-11.6
-13.73	-19.23
-12.51	-26.86
-10.38	-28.69
-7.63	-22.58
-4.58	-11.6
-1.53	-0.92
0.61	4.88
1.22	3.97
-0.61	-1.83
-5.19	-10.07
-10.68	-16.17
-14.34	-13.73
-13.43	7.02
-7.93	55.85
-1.22	143.43
1.22	278.32
-1.83	465.7
-4.27	699.46
3.97	947.57
26.86	1152.34
56.15	1249.08(R)
74.77	1202.09
65.31	1031.19
24.41	802.31
-34.48	588.99
-90.94	430.6
-128.78	325.32
-143.13	251.46
-137.02	190.12
-117.49	134.58
-89.42	84.23
-58.9	36.93
-32.35	-6.1
-15.26	-38.76
-9.16	-54.02
-9.77	-52.19
-11.6	-43.64
-10.99	-38.76
-7.63	-41.5
-3.97	-47.61
-1.53	-52.49
-0.31	-54.32
-0.31	-55.24
-0.31	-57.07
-0.31	-58.29
-0.31	-58.29
0	-55.85
1.22	-51.88
3.36	-47
6.1	-41.5
8.85	-36.32
10.68	-33.26
11.6	-33.57
11.29	-36.32
9.77	-40.28
8.24	-43.64
7.63	-45.78
7.93	-46.39
8.85	-45.47
8.85	-43.95
8.54	-42.42
7.93	-41.5
7.93	-41.5
8.85	-41.2
10.07	-39.06
11.29	-33.57
12.21	-25.94
13.43	-18.62
15.26	-13.43
17.7	-10.99
20.14	-9.16
22.58	-5.49
25.02	1.22
28.38	10.99
32.04	22.28
36.32	34.48
40.59	47.3
44.25	60.42
47.3	74.16
50.35	88.5
53.41	104.68
56.76	122.07
60.73	139.77
64.39	155.64
66.83	168.15
67.75	178.22
67.44	187.38
66.53	195.92
64.7	201.42
62.56	200.5
59.51	191.96
55.24	177.31
49.74	160.22
43.03	143.13
36.32	126.95
29.91	110.17
24.41	91.55
20.14	70.19
16.78	47.91
13.73	28.69
10.38	13.73
7.02	3.36
3.97	-5.19
0.92	-13.43
-1.22	-21.06
-2.75	-25.94
-4.27	-28.38
-5.49	-29.91
-7.63	-32.65
-10.07	-37.84
-12.82	-41.81
-15.56	-42.42
-17.4	-39.06
-18.31	-36.01
-18.92	-36.93
-19.53	-41.81
-20.45	-48.22
-21.06	-52.19
-20.75	-51.57
-19.23	-47
-17.4	-39.98
-15.26	-32.65
-13.73	-26.25
-12.82	-21.97
-12.51	-20.75
-12.51	-23.19
-12.82	-28.38
-12.82	-35.1
-12.21	-40.28
-10.68	-42.42
-8.24	-40.28
-5.19	-36.62
-2.44	-35.1
-0.61	-38.76
-0.31	-47.61
-1.53	-57.68
-3.97	-63.78
-6.41	-63.78
-8.24	-57.37
-8.85	-47.61
-8.54	-38.76
-7.93	-33.26
-7.32	-33.57
-7.02	-38.76
-7.02	-45.78
-6.71	-52.19
-6.1	-56.15
-6.1	-58.29
-6.41	-60.12
-7.02	-61.34
-8.54	-62.56
-10.07	-65
-11.6	-68.36
-13.12	-73.24
-14.34	-77.21
-15.26	-78.43
-15.56	-76.29
-15.87	-72.33
-16.17	-69.89
-16.48	-70.19
-17.09	-73.24
-17.7	-78.43
-18.31	-84.53
-18.01	-89.42
-17.7	-90.94
-16.78	-88.2
-16.48	-81.79
-16.48	-74.77
-16.48	-70.5
-16.48	-70.5
-15.87	-72.94
-14.95	-74.16
-13.73	-72.02
-12.51	-68.05
-10.99	-67.75
-9.77	-75.38
-9.46	-89.11
-10.07	-102.23
-12.21	-107.12
-14.65	-100.71
-16.17	-87.89
-16.78	-76.6
-15.87	-72.33
-14.34	-75.68
-13.12	-83.92
-13.12	-93.08
-14.04	-100.4
-14.95	-104.37
-15.87	-104.98
-16.17	-102.54
-16.17	-99.18
-16.17	-95.52
-16.48	-91.25
-18.01	-86.36
-19.84	-82.09
-21.97	-81.79
-23.5	-87.59
-24.11	-96.74
-23.5	-105.59
-21.97	-109.86
-21.06	-108.34
-20.75	-103.76
-21.97	-98.57
-23.19	-94.91
-24.11	-92.47
-24.11	-90.03
-23.8	-87.28
-23.5	-84.23
-22.89	-82.4
-21.36	-82.7
-19.53	-84.84
-18.31	-87.89
-17.4	-88.5
-17.09	-85.45
-16.17	-80.26
-14.65	-76.6
-12.82	-78.43
-11.29	-84.23
-11.29	-89.42
-12.51	-88.81
-14.34	-82.7
-16.48	-75.99
-18.92	-73.85
-20.75	-77.82
-21.06	-85.75
-20.75	-93.38
-19.84	-97.96
-19.23	-96.44
-19.53	-88.81
-20.14	-77.51
-20.45	-67.75
-20.45	-65.31
-19.23	-71.41
-18.31	-83.31
-17.7	-95.83
-18.01	-104.37
-19.23	-106.81
-20.14	-104.98
-20.45	-99.18
-19.84	-92.16
-19.53	-86.98
-21.06	-85.45
-23.5	-87.59
-25.94	-90.03
-26.55	-88.5
-25.63	-81.18
-24.11	-72.02
-22.89	-67.44
-23.19	-71.72
-23.5	-83.62
-22.89	-95.52
-21.36	-101.01
-19.53	-97.35
-18.62	-88.2
-18.01	-78.13
-17.09	-72.02
-15.26	-70.8
-12.51	-72.33
-10.38	-74.46
-9.46	-75.07
-9.77	-74.77
-9.46	-75.07
-8.24	-76.6
-6.41	-78.13
-6.1	-77.21
-7.93	-72.33
-11.29	-65
-13.73	-59.51
-14.04	-59.81
-12.21	-67.14
-10.07	-79.35
-9.46	-92.16
-10.68	-99.79
-12.51	-98.57
-14.65	-89.11
-16.48	-74.77
-17.7	-63.78
-18.62	-60.12
-19.53	-63.78
-20.14	-68.66
-20.45	-69.58
-20.14	-65.61
-19.53	-61.95
-18.62	-64.39
-18.01	-73.55
-18.01	-83.92
-18.31	-89.11
-18.62	-86.36
-18.62	-78.74
-18.92	-71.72
-20.14	-70.5
-22.28	-74.77
-23.5	-79.04
-21.36	-75.68
-14.34	-54.93
-4.58	-6.71
3.66	79.04
5.49	213.32
2.75	403.44
3.66	641.17
17.7	891.42
46.08	1092.22
78.43	1181.03(R)
96.74	1130.98
87.59	969.54
52.19	761.41
3.66	568.54
-43.03	416.87
-77.51	298.77
-95.83	198.67
-98.27	110.78
-85.75	39.98
-61.95	-10.68
-33.87	-46.39
-11.29	-75.38
-0.31	-97.96
-0.31	-110.78
-6.1	-113.53
-11.29	-109.86
-12.82	-106.51
-11.9	-105.29
-10.68	-105.59
-10.38	-105.9
-10.99	-107.73
-11.6	-114.75
-11.6	-126.04
-11.6	-137.94
-10.99	-145.87
-9.46	-147.4
-7.63	-141.91
-5.8	-131.84
-4.27	-119.93
-3.66	-109.25
-3.97	-102.54
-3.97	-100.71
-3.36	-102.54
-2.14	-105.59
-0.31	-108.64
2.14	-110.78
5.19	-110.78
8.24	-106.2
11.29	-95.21
14.34	-80.57
16.78	-68.05
19.23	-62.56
21.06	-64.39
21.97	-69.58
21.97	-73.55
21.36	-75.99
21.36	-76.29
22.89	-73.55
25.63	-67.14
29.3	-57.07
32.96	-45.17
36.01	-33.87
38.76	-23.5
41.2	-11.29
43.95	4.88
47.3	24.41
50.96	44.56
54.93	61.95
58.59	75.68
61.65	87.28
63.48	99.18
65	113.53
66.53	131.23
68.05	150.15
68.66	166.63
67.75	177.61
64.39	180.97
60.12	177.31
55.54	167.24
51.57	151.98
47.61	132.75
42.72	112
36.93	92.77
30.52	77.82
24.72	66.53
19.53	55.54
15.26	43.03
10.99	28.38
6.71	14.65
2.44	3.36
-1.53	-5.49
-4.58	-12.51
-6.71	-18.01
-7.32	-21.06
-7.32	-20.75
-7.02	-17.7
-6.71	-14.04
-7.32	-12.51
-8.85	-14.04
-11.29	-17.4
-14.04	-20.75
-15.56	-22.89
-15.56	-24.72
-14.34	-28.69
-13.12	-36.01
-12.82	-45.47
-13.43	-53.41
-14.95	-58.29
-16.48	-59.81
-17.7	-60.73
-18.01	-61.65
-17.4	-61.95
-15.87	-60.73
-14.65	-57.37
-14.65	-54.32
-15.26	-54.02
-15.87	-55.85
-14.95	-57.07
-11.6	-55.24
-6.41	-50.35
-0.92	-43.95
4.58	-36.01
9.46	-23.5
16.17	0.61
27.77	41.5
45.78	100.71
69.58	175.78
94.6	265.2
114.14	370.48
120.54	496.52
109.86	647.89
81.18	821.53
37.23	1005.86
-17.7	1184.39
-79.04	1341.25
-145.57	1469.12
-218.81	1570.74
-298.77	1654.05
-381.16	1727.91
-452.58	1797.18
-496.83	1866.76
-501.4	1943.05
-468.75	2032.47
-415.65	2134.4
-363.16	2227.78
-322.88	2271.12(R)
-294.49	2212.52
-269.47	2015.38
-242	1684.27
-212.71	1274.11
-183.41	866.7
-152.28	522.16
-113.53	253.91
-65.31	35.1
-14.95	-162.96
24.72	-338.75
44.25	-462.95
44.86	-515.14
37.23	-511.47
32.96	-494.38
36.62	-498.35
45.17	-528.56
52.49	-565.49
55.24	-588.68
54.93	-593.87
54.32	-590.52
54.93	-591.13
57.98	-600.89
62.56	-616.15
67.75	-630.49
72.94	-637.82
77.21	-639.04
81.18	-639.34
85.14	-645.75
89.42	-659.79
94.3	-675.66
99.18	-687.56
103.76	-694.27
108.34	-700.68
113.53	-712.28
119.93	-730.59
126.65	-753.48
133.06	-777.28
138.55	-801.7
144.35	-825.81
151.06	-848.69
159.61	-867.31
169.07	-880.13
178.83	-888.98
188.29	-898.13
198.36	-910.95
209.35	-927.43
221.86	-943.3
234.07	-951.54
245.36	-949.71
254.21	-938.72
260.31	-922.55
263.98	-903.93
264.28	-882.26
261.54	-854.49
255.74	-818.48
248.41	-773.93
240.17	-724.79
230.71	-673.22
219.12	-621.03
205.38	-566.1
189.82	-505.37
172.73	-437.62
154.42	-364.99
135.5	-294.8
115.97	-234.38
96.74	-185.85
77.82	-146.79
59.51	-111.69
41.5	-79.35
25.94	-50.35
13.73	-28.08
5.49	-12.51
0.31	-2.44
-3.66	3.97
-7.02	7.32
-9.77	8.24
-12.82	7.63
-16.48	5.49
-21.67	-1.53
-26.86	-14.65
-31.43	-30.82
-33.87	-42.42
-33.87	-43.33
-32.65	-35.71
-31.43	-28.08
-31.74	-28.38
-33.87	-37.54
-37.23	-48.52
-39.37	-53.41
-38.45	-47.91
-35.1	-36.62
-30.52	-29.6
-26.86	-35.71
-25.63	-54.32
-26.86	-73.55
-28.69	-79.04
-29.91	-65.92
-29.6	-45.47
-27.47	-34.18
-24.11	-39.98
-21.06	-55.54
-20.45	-66.53
-21.67	-65
-23.5	-55.24
-23.8	-47.3
-21.97	-43.95
-18.31	-40.28
-14.65	-31.13
-12.51	-19.84
-12.82	-15.87
-15.87	-24.41
-21.36	-39.06
-26.25	-44.86
-26.55	-34.18
-21.67	-13.43
-14.04	3.05
-8.85	3.66
-10.07	-10.99
-16.17	-30.52
-23.19	-43.64
-27.16	-45.78
-27.47	-38.15
-27.16	-25.94
-28.08	-14.95
-30.21	-10.99
-31.13	-14.95
-29.6	-24.41
-26.86	-34.18
-25.63	-40.89
-26.86	-44.56
-29.6	-43.33
-31.74	-35.71
-31.74	-20.75
-29.3	-5.19
-26.25	0.92
-24.72	-8.24
-25.33	-27.77
-25.94	-46.08
-25.02	-53.41
-23.19	-50.05
-21.67	-40.89
-22.28	-30.52
-25.63	-20.45
-28.69	-12.82
-29.3	-12.82
-27.16	-24.41
-23.5	-41.81
-20.45	-53.41
-18.92	-48.22
-18.92	-27.47
-19.84	-6.1
-20.75	0.31
-20.45	-11.9
-18.31	-30.82
-14.34	-38.76
-10.68	-28.38
-8.85	-9.46
-10.07	2.14
-14.34	-2.44
-18.92	-18.62
-21.06	-32.35
-20.14	-36.62
-17.09	-35.1
-14.65	-32.96
-15.56	-29.91
-19.84	-21.97
-24.41	-8.54
-25.94	2.44
-23.5	-1.53
-18.62	-24.41
-15.26	-52.49
-15.56	-64.09
-18.31	-47
-21.36	-11.29
-23.19	16.78
-24.11	13.43
-24.41	-25.02
-24.41	-74.46
-24.11	-97.05
-23.19	-70.19
-21.06	-7.63
-18.01	47.91
-14.95	54.93
-13.12	9.16
-13.12	-52.19
-14.65	-78.43
-16.48	-49.74
-17.09	4.58
-17.09	35.4
-17.09	18.31
-17.09	-27.16
-16.48	-57.37
-14.65	-44.25
-12.82	3.36
-12.82	46.39
-14.65	52.19
-16.48	19.84
-15.87	-25.94
-13.12	-54.32
-10.07	-47
-8.85	-10.99
-10.07	28.69
-13.12	47.3
-15.26	33.87
-15.26	-2.75
-13.73	-39.37
-11.6	-53.1
-10.68	-37.23
-10.99	-6.41
-13.43	16.17
-17.4	15.26
-20.75	-10.07
-21.97	-42.11
-20.14	-56.76
-15.87	-39.98
-11.9	0
-10.07	37.23
-10.38	43.33
-11.29	9.77
-11.6	-42.11
-11.9	-73.85
-12.51	-61.65
-13.43	-19.23
-14.34	17.7
-13.73	22.58
-12.51	-43.95
-14.04	-25.02
-14.65	7.02
-13.12	29.3
-10.68	26.25
-8.24	-2.44
-7.93	-39.37
-9.46	-58.59
-10.99	-44.25
-9.77	-4.27
-5.19	34.48
-0.31	45.78
1.53	25.63
-2.14	-7.32
-8.85	-30.52
-14.95	-33.87
-17.09	-24.41
-15.87	-13.73
-13.43	-8.24
-12.82	-6.1
-14.04	-4.58
-15.56	-3.97
-16.17	-5.19
-15.87	-6.71
-14.95	-6.41
-14.34	-3.66
-14.34	-1.22
-14.95	-2.44
-16.48	-7.63
-18.01	-13.73
-19.23	-16.78
-19.23	-14.95
-18.31	-9.77
-16.48	-3.66
-14.65	1.83
-13.12	5.8
-11.9	7.93
-11.29	7.02
-11.29	2.75
-11.9	-3.66
-12.82	-9.46
-13.43	-12.21
-12.82	-11.6
-11.6	-9.46
-10.07	-7.93
-8.54	-8.85
-7.63	-10.38
-7.63	-10.68
-8.24	-7.93
-8.54	-3.05
-8.54	1.83
-7.63	4.88
-6.41	4.88
-5.19	3.36
-4.58	1.53
-4.88	0.92
-6.1	0.61
-7.63	0.31
-9.46	-0.61
-10.68	-1.53
-10.99	-2.14
-11.29	-1.22
-11.29	0
-11.29	1.53
-11.6	3.05
-11.29	4.27
-10.68	5.8
-10.07	8.24
-9.16	11.29
-8.54	13.43
-8.54	14.04
-9.16	12.51
-10.07	10.07
-10.99	7.63
-10.99	6.41
-10.99	6.1
-10.68	5.8
-10.68	3.66
-10.38	-0.61
-9.77	-5.49
-9.16	-7.32
-8.85	-3.05
-9.16	6.41
-9.16	18.62
-8.85	27.77
-8.54	30.82
-9.16	26.55
-9.16	20.14
-6.71	20.75
-1.22	42.11
6.1	97.66
10.38	200.5
8.54	359.19
4.58	574.65
7.32	827.33
24.41	1070.25
53.1	1237.49
79.04	1273.19(R)
84.53	1166.38
60.42	961.3
12.82	731.2
-40.59	536.8
-85.14	397.64
-111.69	302.12
-119.32	229.19
-110.78	164.49
-89.42	104.37
-59.81	48.22
-30.21	-3.05
-8.85	-44.86
0.61	-70.19
0.31	-77.51
-3.66	-73.85
-6.41	-70.19
-5.8	-71.72
-4.27	-76.6
-3.36	-79.96
-3.66	-79.04
-4.58	-76.29
-4.88	-74.16
-4.27	-74.77
-3.05	-78.74
-1.83	-85.75
-0.92	-94.6
0	-103.45
0.92	-108.64
2.14	-108.34
3.36	-102.54
4.58	-93.08
5.8	-83.62
7.02	-76.29
8.24	-72.02
10.07	-71.11
11.9	-72.94
13.43	-75.99
14.34	-78.74
14.65	-80.57
14.04	-79.65
13.43	-76.9
13.12	-72.33
13.73	-67.44
15.26	-63.48
18.01	-61.04
20.45	-60.12
21.97	-59.81
22.89	-56.15
23.19	-46.69
24.72	-30.82
27.16	-11.29
30.82	5.8
34.18	16.78
36.62	23.5
37.84	31.74
38.76	46.08
40.59	66.22
43.95	86.06
48.52	101.93
53.1	115.05
56.76	130.92
59.81	153.5
62.56	180.66
64.39	205.69
65.61	223.08
65.61	231.32
63.78	232.85
60.12	229.19
55.85	220.64
51.27	206.91
47.61	189.82
44.56	173.03
41.2	157.17
37.23	140.38
32.96	119.63
29.3	97.05
26.55	76.9
24.11	64.39
21.36	59.51
18.01	57.68
14.04	53.1
10.07	43.64
6.1	30.82
2.44	18.01
-0.92	6.41
-3.66	-4.27
-5.8	-14.04
-7.32	-22.58
-7.93	-26.86
-7.93	-25.63
-7.93	-21.36
-7.93	-16.78
-8.54	-14.65
-9.46	-14.95
-10.68	-16.78
-11.6	-18.92
-12.21	-22.28
-12.21	-26.25
-12.21	-28.08
-12.51	-25.94
-12.82	-20.45
-12.51	-15.56
-11.9	-14.95
-11.29	-19.84
-10.38	-28.69
-9.16	-37.54
-8.24	-43.64
-7.32	-45.47
-7.02	-42.11
-6.71	-34.79
-6.1	-26.25
-4.88	-18.92
-3.05	-14.95
-1.22	-14.34
0.31	-16.17
1.22	-19.23
1.83	-21.67
1.83	-20.45
2.14	-13.73
1.83	-3.36
1.83	4.58
2.44	4.27
3.97	-5.19
6.71	-19.53
9.16	-30.82
10.07	-33.87
8.24	-29.91
4.58	-24.72
0.31	-25.63
-3.05	-32.96
-4.27	-43.64
-3.66	-51.88
-1.83	-54.93
-0.61	-54.63
0	-53.71
-0.61	-53.1
-1.53	-52.49
-2.75	-51.57
-4.27	-51.88
-5.49	-54.32
-6.1	-57.98
-7.02	-59.51
-7.32	-57.37
-8.24	-53.1
-8.85	-51.57
-9.46	-57.07
-9.46	-68.05
-9.77	-79.35
-10.38	-84.23
-12.51	-79.65
-14.65	-69.27
-16.78	-60.73
-17.7	-60.12
-17.09	-68.36
-15.56	-82.7
-14.04	-97.35
-13.43	-107.12
-12.82	-109.56
-12.51	-103.76
-11.9	-91.55
-11.6	-78.74
-11.6	-69.89
-11.6	-67.75
-11.29	-70.5
-10.99	-74.77
-10.07	-77.51
-8.85	-78.13
-7.93	-77.51
-7.63	-76.9
-8.54	-75.68
-11.6	-74.46
-15.56	-73.24
-19.53	-72.63
-21.36	-74.16
-21.06	-79.04
-18.92	-86.36
-16.78	-92.47
-16.17	-93.38
-15.87	-87.89
-15.56	-79.65
-14.95	-72.63
-13.73	-70.5
-13.12	-73.24
-13.43	-79.35
-13.73	-88.5
-14.34	-98.27
-14.65	-104.68
-14.95	-102.54
-15.56	-89.42
-16.17	-69.58
-16.48	-52.49
-16.17	-47.3
-15.56	-54.63
-14.65	-68.05
-13.43	-79.04
-12.21	-82.09
-11.6	-77.82
-11.6	-71.11
-11.9	-66.83
-12.51	-65.61
-12.21	-66.53
-10.68	-67.44
-8.54	-67.75
-6.41	-67.14
-5.19	-65.92
-4.27	-64.09
-3.36	-63.78
-1.83	-66.53
-0.92	-72.02
-0.61	-77.21
-1.53	-78.74
-4.27	-75.07
-8.24	-69.27
-11.9	-66.22
-14.65	-68.05
-15.26	-72.63
-14.65	-74.77
-13.73	-72.02
-13.73	-66.22
-14.34	-61.95
-14.65	-60.73
-13.73	-61.34
-12.21	-60.73
-10.99	-58.59
-10.38	-57.68
-9.77	-61.04
-8.54	-66.83
-6.71	-68.66
-5.49	-62.56
-6.1	-51.57
-7.63	-43.33
-9.46	-44.25
-10.07	-53.41
-9.46	-63.17
-8.85	-65.61
-8.54	-59.51
-9.16	-50.35
-9.77	-44.25
-10.07	-43.03
-9.46	-45.17
-8.85	-47.3
-7.93	-47.61
-6.71	-47.91
-4.88	-50.05
-2.44	-53.71
-0.31	-55.85
0.92	-53.71
1.53	-47.61
2.44	-40.89
3.97	-36.62
5.19	-36.32
5.49	-36.93
3.97	-36.93
1.22	-36.62
-1.53	-39.67
-3.05	-46.08
-3.66	-51.88
-3.66	-51.88
-3.97	-44.25
-4.88	-33.26
-5.49	-26.25
-6.1	-28.38
-6.41	-38.15
-7.02	-49.13
-7.93	-54.32
-9.16	-51.57
-9.77	-44.86
-9.77	-40.89
-9.46	-42.72
-8.85	-48.22
-8.54	-51.27
-8.85	-46.08
-10.07	-34.79
-10.99	-24.11
-11.9	-20.75
-12.21	-25.94
-11.29	-32.65
-10.07	-33.26
-8.85	-25.33
-8.54	-14.65
-8.85	-11.9
-9.77	-21.06
-10.07	-38.15
-9.46	-51.88
-8.24	-55.54
-6.71	-50.66
-4.88	-44.25
-3.66	-42.42
-2.14	-43.95
-0.31	-42.42
1.83	-34.79
3.66	-24.11
4.58	-15.56
3.66	-12.21
1.22	-12.21
-2.14	-12.82
-4.58	-12.82
-5.8	-14.95
-4.88	-21.36
-2.75	-31.43
-1.22	-42.42
-0.61	-50.05
-0.92	-52.8
-1.22	-50.66
-1.22	-45.17
-1.53	-37.54
-2.75	-29.3
-3.97	-21.67
-4.88	-16.48
-3.05	-13.43
-1.53	-14.04
-1.22	-16.17
-1.83	-20.14
-3.05	-25.63
-3.97	-29.6
-5.19	-29.91
-6.41	-27.16
-7.32	-25.02
-6.71	-27.16
-5.19	-32.65
-2.75	-37.54
-0.61	-36.93
0.61	-29.6
0.31	-19.53
0	-12.21
-0.31	-10.99
0.31	-14.65
1.53	-18.62
3.05	-20.75
4.27	-22.58
5.8	-27.16
7.32	-33.57
8.85	-36.62
10.07	-31.13
10.38	-15.56
10.38	3.66
9.46	15.56
7.32	14.04
4.27	1.83
1.22	-12.21
-1.53	-21.67
-2.44	-24.11
-1.83	-22.28
-0.31	-19.23
0.61	-16.48
0.92	-13.43
0.61	-11.9
0.31	-13.43
-0.31	-16.78
-0.92	-18.62
-1.22	-16.48
-1.83	-10.99
-2.44	-6.1
-2.44	-5.19
-2.44	-8.24
-2.75	-13.43
-3.05	-17.09
-2.75	-18.01
-2.14	-17.09
-1.22	-14.65
-0.92	-10.99
-1.53	-6.1
-2.75	-1.83
-3.36	1.22
-2.44	2.14
0	1.22
1.83	-0.61
2.75	-3.66
3.05	-6.1
3.66	-6.71
5.19	-3.66
7.02	3.36
8.24	10.38
8.54	13.43
8.54	11.6
8.54	9.46
8.54	11.6
7.63	19.53
5.8	28.99
3.36	35.1
1.22	36.62
0.31	36.01
0.92	36.93
1.83	39.37
2.75	42.11
3.36	42.42
3.66	39.37
3.97	33.57
4.58	24.72
5.19	14.34
5.49	4.58
5.49	-2.44
5.49	-5.19
5.49	-4.58
5.19	-2.14
4.88	-0.61
4.27	0
3.66	-0.31
3.97	0
4.88	1.53
5.8	4.88
5.8	9.16
5.19	12.21
4.27	11.6
3.97	7.32
4.27	2.14
5.19	0.92
5.49	5.19
5.8	12.21
6.1	16.78
6.41	16.17
7.63	11.6
8.85	7.93
10.38	8.24
12.21	11.9
14.65	14.65
16.78	14.34
18.01	12.21
18.01	10.68
16.17	10.68
12.82	10.99
9.16	9.77
5.19	7.02
1.83	4.88
0.31	5.19
1.53	7.32
4.58	9.77
7.93	10.99
9.46	10.68
7.93	10.07
3.97	10.68
0.92	13.12
0.61	18.31
2.75	24.72
5.49	30.21
7.02	32.65
5.8	31.43
3.66	28.99
1.53	27.77
0.61	29.91
1.53	33.26
3.66	35.1
5.49	33.87
6.1	31.43
5.8	32.35
4.88	39.67
4.27	52.19
3.97	64.09
3.66	68.66
3.97	63.78
5.49	54.63
10.38	52.49
18.01	72.33
26.55	126.34
32.04	222.78
32.35	368.04
31.13	564.88
36.62	801.7
56.15	1041.26
87.59	1222.53
118.1	1283.87(R)
128.48	1202.39
106.81	1011.66
57.68	784.61
-1.83	589.9
-53.1	456.24
-85.14	372.31
-96.74	309.45
-91.55	246.58
-73.24	180.97
-46.08	120.54
-17.7	72.63
3.36	41.5
11.9	26.86
9.46	23.5
3.05	25.02
-1.22	25.63
-0.92	24.41
2.44	21.67
7.02	17.4
10.68	11.6
13.43	5.8
13.73	4.27
11.9	9.16
8.85	17.7
6.41	23.5
5.8	21.67
7.32	13.43
9.77	5.49
11.9	4.58
13.43	10.99
15.26	18.62
18.01	21.36
20.75	17.4
23.5	10.68
24.72	8.24
24.72	11.9
24.72	18.62
25.63	23.5
28.38	25.63
32.04	29.3
35.71	37.84
39.06	48.22
41.81	51.88
43.33	44.25
43.33	29.6
41.81	19.23
39.37	22.28
38.45	36.93
39.98	54.63
43.03	68.36
45.78	76.9
47.3	83.92
47.91	92.16
50.05	100.4
54.32	106.2
60.12	108.64
65.92	111.08
69.27	117.8
70.5	132.45
70.8	154.42
71.11	179.44
71.41	202.64
72.63	220.95
74.46	233.15
76.9	241.09
79.65	248.11
81.18	256.65
80.26	265.5
77.21	271.61
72.94	271.3
68.05	263.37
63.78	250.85
59.81	238.34
56.46	227.66
52.49	216.67
47.91	201.42
42.42	181.88
37.23	162.05
33.87	145.87
32.65	134.89
32.35	126.04
31.13	114.44
27.47	97.05
22.89	75.68
18.62	58.29
16.48	52.19
16.17	59.2
15.87	72.33
14.04	79.96
10.38	73.55
7.02	54.32
5.19	32.96
5.8	21.97
7.32	26.25
7.63	41.2
6.41	56.46
4.58	60.73
3.36	50.05
2.75	31.13
2.75	19.23
3.36	26.25
4.27	52.49
5.19	81.79
5.19	90.33
4.58	66.83
3.97	25.02
3.05	-4.88
2.14	-0.31
0.31	36.01
-2.14	75.38
-4.27	85.14
-4.58	57.37
-2.75	13.43
-0.31	-12.51
0.92	0.31
0.61	42.72
-0.92	80.57
-1.53	85.75
-0.61	55.54
2.44	11.6
6.1	-18.01
9.46	-19.84
11.9	-1.22
13.43	20.45
14.95	34.18
16.48	38.76
17.4	35.4
16.78	23.19
14.34	2.75
10.99	-18.62
7.63	-25.02
4.58	-5.8
2.44	32.65
2.14	65.92
3.05	65
4.58	22.28
5.49	-42.11
3.97	-88.5
0.61	-85.75
-3.05	-32.65
-4.88	38.45
-4.27	83.62
-1.83	73.55
0.31	15.56
0.31	-50.96
-1.83	-84.23
-4.58	-68.97
-6.1	-26.25
-7.02	9.16
-8.24	16.17
-9.46	0.92
-9.46	-17.09
-6.71	-26.25
-2.44	-27.77
0.31	-27.47
0.31	-26.25
-2.75	-20.45
-6.41	-10.38
-8.24	-1.83
-7.02	-0.31
-4.88	-5.49
-2.75	-12.82
-0.92	-16.48
0.31	-14.95
1.22	-9.77
1.53	-4.88
0.92	-4.58
0	-10.68
-0.61	-19.23
-1.22	-21.67
-1.53	-12.51
-2.14	1.83
-2.75	10.38
-3.66	7.32
-4.58	-2.14
-6.41	-10.07
-8.24	-12.82
-8.85	-15.56
-7.02	-22.89
-3.36	-28.08
-0.61	-21.67
-0.61	-3.05
-3.36	12.82
-5.49	10.07
-4.88	-11.6
-2.14	-36.01
-0.31	-43.33
-1.83	-27.16
-6.1	-0.92
-9.46	15.26
-9.16	10.99
-5.8	-7.93
-2.14	-24.11
-1.53	-25.33
-3.97	-12.82
-6.71	0
-7.93	0
-8.24	-14.04
-8.54	-28.99
-8.85	-29.91
-7.93	-14.34
-4.88	3.97
-1.53	9.77
-0.31	-0.61
-1.83	-17.09
-4.88	-25.33
-6.1	-18.62
-3.66	-1.83
1.53	13.43
7.32	18.62
10.38	14.34
9.46	4.58
3.97	-5.19
-3.97	-10.07
-10.07	-9.77
-10.99	-9.16
-6.1	-11.9
0.92	-18.31
5.49	-23.8
4.88	-21.97
0.61	-11.29
-3.97	2.14
-5.19	9.46
-3.66	6.41
-1.53	-4.27
-0.61	-16.17
-1.22	-23.5
-2.14	-22.28
-2.14	-14.65
-1.22	-2.75
-0.31	7.63
0.31	10.99
0	5.8
-1.22	-3.05
-3.36	-9.16
-5.8	-11.6
-7.63	-14.34
-7.93	-21.36
-7.63	-33.26
-6.71	-43.95
-6.41	-45.17
-6.1	-35.4
-5.19	-19.23
-3.66	-2.75
-1.22	9.46
0.92	14.95
2.14	14.34
1.83	8.85
0.61	2.14
-0.61	-2.14
-0.92	-1.53
-0.61	3.66
-0.92	9.46
-2.44	12.51
-4.58	11.9
-7.02	9.16
-8.24	6.41
-7.93	4.88
-7.02	3.36
-5.8	1.22
-4.88	-0.92
-3.97	-1.83
-3.05	-0.92
-1.22	-72.33
-2.14	-70.19
-2.44	-62.26
-2.14	-53.71
-1.83	-49.44
-2.14	-50.66
-4.27	-55.24
-7.32	-59.2
-8.54	-56.15
-6.1	-37.54
-0.31	7.93
4.88	91.55
6.41	223.69
6.1	410.46
11.29	644.53
31.13	892.03
66.22	1095.58
104.37	1192.32
127.56	1150.21
120.54	989.69
83.01	772.09
28.38	563.35
-26.25	399.78
-67.44	284.42
-89.11	203.25
-92.16	140.38
-79.96	87.59
-57.07	38.76
-29.91	-7.93
-6.71	-47.3
5.8	-68.36
7.93	-67.14
3.66	-51.27
-0.31	-36.62
-1.22	-33.57
0.61	-41.81
3.36	-53.41
4.88	-61.34
5.8	-63.17
6.1	-60.12
5.8	-53.1
5.49	-45.47
5.19	-40.89
5.8	-42.11
7.93	-48.52
11.29	-55.85
14.04	-60.12
15.26	-58.9
14.34	-52.19
13.12	-42.42
14.04	-32.04
18.01	-24.41
23.19	-21.67
26.25	-23.19
26.86	-25.63
25.94	-25.63
27.47	-22.28
32.04	-16.78
38.45	-10.68
43.95	-6.1
46.08	-2.75
45.17	-0.92
42.42	0
39.67	1.83
38.15	5.8
39.06	13.43
43.03	22.58
48.83	29.6
54.32	32.65
57.37	35.1
58.59	42.11
59.51	58.59
61.95	82.09
66.22	106.2
70.8	123.9
74.16	134.58
75.68	141.91
76.9	152.59
79.65	169.98
83.62	192.87
88.81	216.67
92.77	234.99
94.6	243.84
93.69	242
89.72	231.93
83.31	219.42
75.68	207.82
68.66	197.14
64.09	185.24
61.65	171.2
59.2	155.64
54.93	140.69
47.91	126.04
38.76	108.03
29.91	85.45
23.8	61.04
20.45	41.2
19.23	30.52
18.92	27.16
18.92	24.41
18.62	18.31
16.17	8.85
11.29	0.92
3.97	-1.83
-2.44	-2.75
-6.41	-6.71
-7.63	-15.87
-8.54	-26.55
-10.07	-31.43
-12.21	-25.63
-13.43	-12.82
-12.51	-3.97
-10.68	-8.85
-9.16	-28.69
-10.07	-51.27
-12.21	-59.2
-14.34	-42.11
-15.26	-7.93
-14.34	20.75
-12.51	23.8
-10.68	-2.75
-9.16	-40.28
-8.85	-62.56
-10.99	-57.98
-14.34	-37.54
-17.09	-23.8
-17.09	-30.21
-14.34	-48.22
-10.99	-56.46
-9.16	-43.33
-9.77	-19.84
-10.68	-9.16
-10.99	-25.33
-9.77	-60.73
-7.63	-90.64
-5.49	-93.99
-3.66	-68.36
-2.44	-30.52
-2.44	-1.22
-2.75	2.75
-3.66	-23.19
-3.66	-67.14
-3.05	-105.29
-1.83	-116.88
0	-93.99
1.53	-47.61
2.44	-3.36
2.14	16.48
1.22	4.27
-0.92	-30.21
-3.36	-67.14
-6.71	-88.2
-10.99	-85.14
-14.65	-65.31
-15.87	-45.78
-13.73	-40.28
-10.07	-52.8
-7.32	-74.16
-7.32	-89.42
-9.16	-88.5
-11.29	-72.63
-12.51	-51.88
-13.43	-37.23
-14.04	-34.79
-14.95	-42.72
-15.56	-52.49
-15.87	-57.37
-16.17	-54.93
-17.09	-50.05
-17.4	-50.35
-15.56	-60.42
-12.21	-76.6
-9.46	-88.5
-9.46	-86.06
-12.51	-67.75
-15.87	-43.64
-17.09	-28.69
-14.34	-33.26
-9.46	-54.63
-4.88	-77.82
-2.14	-86.67
-1.53	-74.46
-1.53	-50.35
-2.44	-32.65
-4.27	-33.57
-7.02	-49.74
-9.16	-64.39
-9.16	-63.78
-6.71	-46.08
-4.27	-23.5
-3.36	-13.12
-4.58	-21.97
-6.1	-43.64
-6.41	-64.7
-6.41	-74.16
-7.02	-68.05
-9.77	-51.27
-13.43	-34.18
-16.17	-25.33
-16.17	-27.47
-14.65	-36.62
-13.43	-46.08
-12.82	-50.05
-11.29	-47.91
-8.54	-43.33
-5.8	-42.11
-5.49	-47
-8.54	-55.54
-14.04	-61.34
-18.01	-60.12
-18.31	-51.27
-14.95	-38.76
-10.99	-27.77
-8.54	-24.11
-8.85	-30.52
-9.77	-45.17
-10.38	-62.26
-9.16	-72.02
-7.02	-68.05
-5.19	-52.19
-5.19	-34.48
-6.71	-25.33
-7.93	-28.38
-7.32	-37.84
-4.88	-43.95
-2.44	-41.5
0	-32.96
1.83	-24.41
3.05	-22.58
3.05	-28.99
1.53	-37.54
-1.83	-39.37
-5.19	-32.35
-6.71	-21.97
-6.41	-18.92
-6.1	-26.86
-7.93	-39.98
-11.6	-47.3
-14.95	-43.33
-15.26	-32.04
-12.21	-23.19
-7.02	-22.28
-3.97	-28.38
-5.19	-37.54
-10.07	-44.56
-17.09	-46.69
-21.97	-44.56
-23.19	-41.5
-21.06	-42.42
-17.7	-48.52
-15.87	-55.54
-15.87	-57.98
-17.09	-54.02
-18.01	-46.39
-18.62	-39.06
-18.01	-34.18
-17.4	-29.91
-16.48	-25.02
-15.26	-19.53
-14.34	-14.65
-13.73	-10.68
-13.73	-7.63
-14.04	-7.32
-14.34	-11.6
-13.73	-19.23
-12.51	-26.86
-10.38	-28.69
-7.63	-22.58
-4.58	-11.6
-1.53	-0.92
0.61	4.88
1.22	3.97
-0.61	-1.83
-5.19	-10.07
-10.68	-16.17
-14.34	-13.73
-13.43	7.02
-7.93	55.85
-1.22	143.43
1.22	278.32
-1.83	465.7
-4.27	699.46
3.97	947.57
26.86	1152.34
56.15	1249.08(R)
74.77	1202.09
65.31	1031.19
24.41	802.31
-34.48	588.99
-90.94	430.6
-128.78	325.32
-143.13	251.46
-137.02	190.12
-117.49	134.58
-89.42	84.23
-58.9	36.93
-32.35	-6.1
-15.26	-38.76
-9.16	-54.02
-9.77	-52.19
-11.6	-43.64
-10.99	-38.76
-7.63	-41.5
-3.97	-47.61
-1.53	-52.49
-0.31	-54.32
-0.31	-55.24
-0.31	-57.07
-0.31	-58.29
-0.31	-58.29
0	-55.85
1.22	-51.88
3.36	-47
6.1	-41.5
8.85	-36.32
10.68	-33.26
11.6	-33.57
11.29	-36.32
9.77	-40.28
8.24	-43.64
7.63	-45.78
7.93	-46.39
8.85	-45.47
8.85	-43.95
8.54	-42.42
7.93	-41.5
7.93	-41.5
8.85	-41.2
10.07	-39.06
11.29	-33.57
12.21	-25.94
13.43	-18.62
15.26	-13.43
17.7	-10.99
20.14	-9.16
22.58	-5.49
25.02	1.22
28.38	10.99
32.04	22.28
36.32	34.48
40.59	47.3
44.25	60.42
47.3	74.16
50.35	88.5
53.41	104.68
56.76	122.07
60.73	139.77
64.39	155.64
66.83	168.15
67.75	178.22
67.44	187.38
66.53	195.92
64.7	201.42
62.56	200.5
59.51	191.96
55.24	177.31
49.74	160.22
43.03	143.13
36.32	126.95
29.91	110.17
24.41	91.55
20.14	70.19
16.78	47.91
13.73	28.69
10.38	13.73
7.02	3.36
3.97	-5.19
0.92	-13.43
-1.22	-21.06
-2.75	-25.94
-4.27	-28.38
-5.49	-29.91
-7.63	-32.65
-10.07	-37.84
-12.82	-41.81
-15.56	-42.42
-17.4	-39.06
-18.31	-36.01
-18.92	-36.93
-19.53	-41.81
-20.45	-48.22
-21.06	-52.19
-20.75	-51.57
-19.23	-47
-17.4	-39.98
-15.26	-32.65
-13.73	-26.25
-12.82	-21.97
-12.51	-20.75
-12.51	-23.19
-12.82	-28.38
-12.82	-35.1
-12.21	-40.28
-10.68	-42.42
-8.24	-40.28
-5.19	-36.62
-2.44	-35.1
-0.61	-38.76
-0.31	-47.61
-1.53	-57.68
-3.97	-63.78
-6.41	-63.78
-8.24	-57.37
-8.85	-47.61
-8.54	-38.76
-7.93	-33.26
-7.32	-33.57
-7.02	-38.76
-7.02	-45.78
-6.71	-52.19
-6.1	-56.15
-6.1	-58.29
-6.41	-60.12
-7.02	-61.34
-8.54	-62.56
-10.07	-65
-11.6	-68.36
-13.12	-73.24
-14.34	-77.21
-15.26	-78.43
-15.56	-76.29
-15.87	-72.33
-16.17	-69.89
-16.48	-70.19
-17.09	-73.24
-17.7	-78.43
-18.31	-84.53
-18.01	-89.42
-17.7	-90.94
-16.78	-88.2
-16.48	-81.79
-16.48	-74.77
-16.48	-70.5
-16.48	-70.5
-15.87	-72.94
-14.95	-74.16
-13.73	-72.02
-12.51	-68.05
-10.99	-67.75
-9.77	-75.38
-9.46	-89.11
-10.07	-102.23
-12.21	-107.12
-14.65	-100.71
-16.17	-87.89
-16.78	-76.6
-15.87	-72.33
-14.34	-75.68
-13.12	-83.92
-13.12	-93.08
-14.04	-100.4
-14.95	-104.37
-15.87	-104.98
-16.17	-102.54
-16.17	-99.18
-16.17	-95.52
-16.48	-91.25
-18.01	-86.36
-19.84	-82.09
-21.97	-81.79
-23.5	-87.59
-24.11	-96.74
-23.5	-105.59
-21.97	-109.86
-21.06	-108.34
-20.75	-103.76
-21.97	-98.57
-23.19	-94.91
-24.11	-92.47
-24.11	-90.03
-23.8	-87.28
-23.5	-84.23
-22.89	-82.4
-21.36	-82.7
-19.53	-84.84
-18.31	-87.89
-17.4	-88.5
-17.09	-85.45
-16.17	-80.26
-14.65	-76.6
-12.82	-78.43
-11.29	-84.23
-11.29	-89.42
-12.51	-88.81
-14.34	-82.7
-16.48	-75.99
-18.92	-73.85
-20.75	-77.82
-21.06	-85.75
-20.75	-93.38
-19.84	-97.96
-19.23	-96.44
-19.53	-88.81
-20.14	-77.51
-20.45	-67.75
-20.45	-65.31
-19.23	-71.41
-18.31	-83.31
-17.7	-95.83
-18.01	-104.37
-19.23	-106.81
-20.14	-104.98
-20.45	-99.18
-19.84	-92.16
-19.53	-86.98
-21.06	-85.45
-23.5	-87.59
-25.94	-90.03
-26.55	-88.5
-25.63	-81.18
-24.11	-72.02
-22.89	-67.44
-23.19	-71.72
-23.5	-83.62
-22.89	-95.52
-21.36	-101.01
-19.53	-97.35
-18.62	-88.2
-18.01	-78.13
-17.09	-72.02
-15.26	-70.8
-12.51	-72.33
-10.38	-74.46
-9.46	-75.07
-9.77	-74.77
-9.46	-75.07
-8.24	-76.6
-6.41	-78.13
-6.1	-77.21
-7.93	-72.33
-11.29	-65
-13.73	-59.51
-14.04	-59.81
-12.21	-67.14
-10.07	-79.35
-9.46	-92.16
-10.68	-99.79
-12.51	-98.57
-14.65	-89.11
-16.48	-74.77
-17.7	-63.78
-18.62	-60.12
-19.53	-63.78
-20.14	-68.66
-20.45	-69.58
-20.14	-65.61
-19.53	-61.95
-18.62	-64.39
-18.01	-73.55
-18.01	-83.92
-18.31	-89.11
-18.62	-86.36
-18.62	-78.74
-18.92	-71.72
-20.14	-70.5
-22.28	-74.77
-23.5	-79.04
-21.36	-75.68
-14.34	-54.93
-4.58	-6.71
3.66	79.04
5.49	213.32
2.75	403.44
3.66	641.17
17.7	891.42
46.08	1092.22
78.43	1181.03(R)
96.74	1130.98
87.59	969.54
52.19	761.41
3.66	568.54
-43.03	416.87
-77.51	298.77
-95.83	198.67
-98.27	110.78
-85.75	39.98
-61.95	-10.68
-33.87	-46.39
-11.29	-75.38
-0.31	-97.96
-0.31	-110.78
-6.1	-113.53
-11.29	-109.86
-12.82	-106.51
-11.9	-105.29
-10.68	-105.59
-10.38	-105.9
-10.99	-107.73
-11.6	-114.75
-11.6	-126.04
-11.6	-137.94
-10.99	-145.87
-9.46	-147.4
-7.63	-141.91
-5.8	-131.84
-4.27	-119.93
-3.66	-109.25
-3.97	-102.54
-3.97	-100.71
-3.36	-102.54
-2.14	-105.59
-0.31	-108.64
2.14	-110.78
5.19	-110.78
8.24	-106.2
11.29	-95.21
14.34	-80.57
16.78	-68.05
19.23	-62.56
21.06	-64.39
21.97	-69.58
21.97	-73.55
21.36	-75.99
21.36	-76.29
22.89	-73.55
25.63	-67.14
29.3	-57.07
32.96	-45.17
36.01	-33.87
38.76	-23.5
41.2	-11.29
43.95	4.88
47.3	24.41
50.96	44.56
54.93	61.95
58.59	75.68
61.65	87.28
63.48	99.18
65	113.53
66.53	131.23
68.05	150.15
68.66	166.63
67.75	177.61
64.39	180.97
60.12	177.31
55.54	167.24
51.57	151.98
47.61	132.75
42.72	112
36.93	92.77
30.52	77.82
24.72	66.53
19.53	55.54
15.26	43.03
10.99	28.38
6.71	14.65
2.44	3.36
-1.53	-5.49
-4.58	-12.51
-6.71	-18.01
-7.32	-21.06
-7.32	-20.75
-7.02	-17.7
-6.71	-14.04
-7.32	-12.51
-8.85	-14.04
-11.29	-17.4
-14.04	-20.75
-15.56	-22.89
-15.56	-24.72
-14.34	-28.69
-13.12	-36.01
-12.82	-45.47
-13.43	-53.41
-14.95	-58.29
-16.48	-59.81
-17.7	-60.73
-18.01	-61.65
-17.4	-61.95
-15.87	-60.73
-14.65	-57.37
-14.65	-54.32
-15.26	-54.02
-15.87	-55.85
-14.95	-57.07
-11.6	-55.24
-6.41	-50.35
-0.92	-43.95
4.58	-36.01
9.46	-23.5
16.17	0.61
27.77	41.5
45.78	100.71
69.58	175.78
94.6	265.2
114.14	370.48
120.54	496.52
109.86	647.89
81.18	821.53
37.23	1005.86
-17.7	1184.39
-79.04	1341.25
-145.57	1469.12
-218.81	1570.74
-298.77	1654.05
-381.16	1727.91
-452.58	1797.18
-496.83	1866.76
-501.4	1943.05
-468.75	2032.47
-415.65	2134.4
-363.16	2227.78
-322.88	2271.12(R)
-294.49	2212.52
-269.47	2015.38
-242	1684.27
-212.71	1274.11
-183.41	866.7
-152.28	522.16
-113.53	253.91
-65.31	35.1
-14.95	-162.96
24.72	-338.75
44.25	-462.95
44.86	-515.14
37.23	-511.47
32.96	-494.38
36.62	-498.35
45.17	-528.56
52.49	-565.49
55.24	-588.68
54.93	-593.87
54.32	-590.52
54.93	-591.13
57.98	-600.89
62.56	-616.15
67.75	-630.49
72.94	-637.82
77.21	-639.04
81.18	-639.34
85.14	-645.75
89.42	-659.79
94.3	-675.66
99.18	-687.56
103.76	-694.27
108.34	-700.68
113.53	-712.28
119.93	-730.59
126.65	-753.48
133.06	-777.28
138.55	-801.7
144.35	-825.81
151.06	-848.69
159.61	-867.31
169.07	-880.13
178.83	-888.98
188.29	-898.13
198.36	-910.95
209.35	-927.43
221.86	-943.3
234.07	-951.54
245.36	-949.71
254.21	-938.72
260.31	-922.55
263.98	-903.93
264.28	-882.26
261.54	-854.49
255.74	-818.48
248.41	-773.93
240.17	-724.79
230.71	-673.22
219.12	-621.03
205.38	-566.1
189.82	-505.37
172.73	-437.62
154.42	-364.99
135.5	-294.8
115.97	-234.38
96.74	-185.85
77.82	-146.79
59.51	-111.69
41.5	-79.35
25.94	-50.35
13.73	-28.08
5.49	-12.51
0.31	-2.44
-3.66	3.97
-7.02	7.32
-9.77	8.24
-12.82	7.63
-16.48	5.49
-21.67	-1.53
-26.86	-14.65
-31.43	-30.82
-33.87	-42.42
-33.87	-43.33
-32.65	-35.71
-31.43	-28.08
-31.74	-28.38
-33.87	-37.54
-37.23	-48.52
-39.37	-53.41
-38.45	-47.91
-35.1	-36.62
-30.52	-29.6
-26.86	-35.71
-25.63	-54.32
-26.86	-73.55
-28.69	-79.04
-29.91	-65.92
-29.6	-45.47
-27.47	-34.18
-24.11	-39.98
-21.06	-55.54
-20.45	-66.53
-21.67	-65
-23.5	-55.24
-23.8	-47.3
-21.97	-43.95
-18.31	-40.28
-14.65	-31.13
-12.51	-19.84
-12.82	-15.87
-15.87	-24.41
-21.36	-39.06
-26.25	-44.86
-26.55	-34.18
-21.67	-13.43
-14.04	3.05
-8.85	3.66
-10.07	-10.99
-16.17	-30.52
-23.19	-43.64
-27.16	-45.78
-27.47	-38.15
-27.16	-25.94
-28.08	-14.95
-30.21	-10.99
-31.13	-14.95
-29.6	-24.41
-26.86	-34.18
-25.63	-40.89
-26.86	-44.56
-29.6	-43.33
-31.74	-35.71
-31.74	-20.75
-29.3	-5.19
-26.25	0.92
-24.72	-8.24
-25.33	-27.77
-25.94	-46.08
-25.02	-53.41
-23.19	-50.05
-21.67	-40.89
-22.28	-30.52
-25.63	-20.45
-28.69	-12.82
-29.3	-12.82
-27.16	-24.41
-23.5	-41.81
-20.45	-53.41
-18.92	-48.22
-18.92	-27.47
-19.84	-6.1
-20.75	0.31
-20.45	-11.9
-18.31	-30.82
-14.34	-38.76
-10.68	-28.38
-8.85	-9.46
-10.07	2.14
-14.34	-2.44
-18.92	-18.62
-21.06	-32.35
-20.14	-36.62
-17.09	-35.1
-14.65	-32.96
-15.56	-29.91
-19.84	-21.97
-24.41	-8.54
-25.94	2.44
-23.5	-1.53
-18.62	-24.41
-15.26	-52.49
-15.56	-64.09
-18.31	-47
-21.36	-11.29
-23.19	16.78
-24.11	13.43
-24.41	-25.02
-24.41	-74.46
-24.11	-97.05
-23.19	-70.19
-21.06	-7.63
-18.01	47.91
-14.95	54.93
-13.12	9.16
-13.12	-52.19
-14.65	-78.43
-16.48	-49.74
-17.09	4.58
-17.09	35.4
-17.09	18.31
-17.09	-27.16
-16.48	-57.37
-14.65	-44.25
-12.82	3.36
-12.82	46.39
-14.65	52.19
-16.48	19.84
-15.87	-25.94
-13.12	-54.32
-10.07	-47
-8.85	-10.99
-10.07	28.69
-13.12	47.3
-15.26	33.87
-15.26	-2.75
-13.73	-39.37
-11.6	-53.1
-10.68	-37.23
-10.99	-6.41
-13.43	16.17
-17.4	15.26
-20.75	-10.07
-21.97	-42.11
-20.14	-56.76
-15.87	-39.98
-11.9	0
-10.07	37.23
-10.38	43.33
-11.29	9.77
-11.6	-42.11
-11.9	-73.85
-12.51	-61.65
-13.43	-19.23
-14.34	17.7
-13.73	22.58
-12.51	-43.95
-14.04	-25.02
-14.65	7.02
-13.12	29.3
-10.68	26.25
-8.24	-2.44
-7.93	-39.37
-9.46	-58.59
-10.99	-44.25
-9.77	-4.27
-5.19	34.48
-0.31	45.78
1.53	25.63
-2.14	-7.32
-8.85	-30.52
-14.95	-33.87
-17.09	-24.41
-15.87	-13.73
-13.43	-8.24
-12.82	-6.1
-14.04	-4.58
-15.56	-3.97
-16.17	-5.19
-15.87	-6.71
-14.95	-6.41
-14.34	-3.66
-14.34	-1.22
-14.95	-2.44
-16.48	-7.63
-18.01	-13.73
-19.23	-16.78
-19.23	-14.95
-18.31	-9.77
-16.48	-3.66
-14.65	1.83
-13.12	5.8
-11.9	7.93
-11.29	7.02
-11.29	2.75
-11.9	-3.66
-12.82	-9.46
-13.43	-12.21
-12.82	-11.6
-11.6	-9.46
-10.07	-7.93
-8.54	-8.85
-7.63	-10.38
-7.63	-10.68
-8.24	-7.93
-8.54	-3.05
-8.54	1.83
-7.63	4.88
-6.41	4.88
-5.19	3.36
-4.58	1.53
-4.88	0.92
-6.1	0.61
-7.63	0.31
-9.46	-0.61
-10.68	-1.53
-10.99	-2.14
-11.29	-1.22
-11.29	0
-11.29	1.53
-11.6	3.05
-11.29	4.27
-10.68	5.8
-10.07	8.24
-9.16	11.29
-8.54	13.43
-8.54	14.04
-9.16	12.51
-10.07	10.07
-10.99	7.63
-10.99	6.41
-10.99	6.1
-10.68	5.8
-10.68	3.66
-10.38	-0.61
-9.77	-5.49
-9.16	-7.32
-8.85	-3.05
-9.16	6.41
-9.16	18.62
-8.85	27.77
-8.54	30.82
-9.16	26.55
-9.16	20.14
-6.71	20.75
-1.22	42.11
6.1	97.66
10.38	200.5
8.54	359.19
4.58	574.65
7.32	827.33
24.41	1070.25
53.1	1237.49
79.04	1273.19(R)
84.53	1166.38
60.42	961.3
12.82	731.2
-40.59	536.8
-85.14	397.64
-111.69	302.12
-119.32	229.19
-110.78	164.49
-89.42	104.37
-59.81	48.22
-30.21	-3.05
-8.85	-44.86
0.61	-70.19
0.31	-77.51
-3.66	-73.85
-6.41	-70.19
-5.8	-71.72
-4.27	-76.6
-3.36	-79.96
-3.66	-79.04
-4.58	-76.29
-4.88	-74.16
-4.27	-74.77
-3.05	-78.74
-1.83	-85.75
-0.92	-94.6
0	-103.45
0.92	-108.64
2.14	-108.34
3.36	-102.54
4.58	-93.08
5.8	-83.62
7.02	-76.29
8.24	-72.02
10.07	-71.11
11.9	-72.94
13.43	-75.99
14.34	-78.74
14.65	-80.57
14.04	-79.65
13.43	-76.9
13.12	-72.33
13.73	-67.44
15.26	-63.48
18.01	-61.04
20.45	-60.12
21.97	-59.81
22.89	-56.15
23.19	-46.69
24.72	-30.82
27.16	-11.29
30.82	5.8
34.18	16.78
36.62	23.5
37.84	31.74
38.76	46.08
40.59	66.22
43.95	86.06
48.52	101.93
53.1	115.05
56.76	130.92
59.81	153.5
62.56	180.66
64.39	205.69
65.61	223.08
65.61	231.32
63.78	232.85
60.12	229.19
55.85	220.64
51.27	206.91
47.61	189.82
44.56	173.03
41.2	157.17
37.23	140.38
32.96	119.63
29.3	97.05
26.55	76.9
24.11	64.39
21.36	59.51
18.01	57.68
14.04	53.1
10.07	43.64
6.1	30.82
2.44	18.01
-0.92	6.41
-3.66	-4.27
-5.8	-14.04
-7.32	-22.58
-7.93	-26.86
-7.93	-25.63
-7.93	-21.36
-7.93	-16.78
-8.54	-14.65
-9.46	-14.95
-10.68	-16.78
-11.6	-18.92
-12.21	-22.28
-12.21	-26.25
-12.21	-28.08
-12.51	-25.94
-12.82	-20.45
-12.51	-15.56
-11.9	-14.95
-11.29	-19.84
-10.38	-28.69
-9.16	-37.54
-8.24	-43.64
-7.32	-45.47
-7.02	-42.11
-6.71	-34.79
-6.1	-26.25
-4.88	-18.92
-3.05	-14.95
-1.22	-14.34
0.31	-16.17
1.22	-19.23
1.83	-21.67
1.83	-20.45
2.14	-13.73
1.83	-3.36
1.83	4.58
2.44	4.27
3.97	-5.19
6.71	-19.53
9.16	-30.82
10.07	-33.87
8.24	-29.91
4.58	-24.72
0.31	-25.63
-3.05	-32.96
-4.27	-43.64
-3.66	-51.88
-1.83	-54.93
-0.61	-54.63
0	-53.71
-0.61	-53.1
-1.53	-52.49
-2.75	-51.57
-4.27	-51.88
-5.49	-54.32
-6.1	-57.98
-7.02	-59.51
-7.32	-57.37
-8.24	-53.1
-8.85	-51.57
-9.46	-57.07
-9.46	-68.05
-9.77	-79.35
-10.38	-84.23
-12.51	-79.65
-14.65	-69.27
-16.78	-60.73
-17.7	-60.12
-17.09	-68.36
-15.56	-82.7
-14.04	-97.35
-13.43	-107.12
-12.82	-109.56
-12.51	-103.76
-11.9	-91.55
-11.6	-78.74
-11.6	-69.89
-11.6	-67.75
-11.29	-70.5
-10.99	-74.77
-10.07	-77.51
-8.85	-78.13
-7.93	-77.51
-7.63	-76.9
-8.54	-75.68
-11.6	-74.46
-15.56	-73.24
-19.53	-72.63
-21.36	-74.16
-21.06	-79.04
-18.92	-86.36
-16.78	-92.47
-16.17	-93.38
-15.87	-87.89
-15.56	-79.65
-14.95	-72.63
-13.73	-70.5
-13.12	-73.24
-13.43	-79.35
-13.73	-88.5
-14.34	-98.27
-14.65	-104.68
-14.95	-102.54
-15.56	-89.42
-16.17	-69.58
-16.48	-52.49
-16.17	-47.3
-15.56	-54.63
-14.65	-68.05
-13.43	-79.04
-12.21	-82.09
-11.6	-77.82
-11.6	-71.11
-11.9	-66.83
-12.51	-65.61
-12.21	-66.53
-10.68	-67.44
-8.54	-67.75
-6.41	-67.14
-5.19	-65.92
-4.27	-64.09
-3.36	-63.78
-1.83	-66.53
-0.92	-72.02
-0.61	-77.21
-1.53	-78.74
-4.27	-75.07
-8.24	-69.27
-11.9	-66.22
-14.65	-68.05
-15.26	-72.63
-14.65	-74.77
-13.73	-72.02
-13.73	-66.22
-14.34	-61.95
-14.65	-60.73
-13.73	-61.34
-12.21	-60.73
-10.99	-58.59
-10.38	-57.68
-9.77	-61.04
-8.54	-66.83
-6.71	-68.66
-5.49	-62.56
-6.1	-51.57
-7.63	-43.33
-9.46	-44.25
-10.07	-53.41
-9.46	-63.17
-8.85	-65.61
-8.54	-59.51
-9.16	-50.35
-9.77	-44.25
-10.07	-43.03
-9.46	-45.17
-8.85	-47.3
-7.93	-47.61
-6.71	-47.91
-4.88	-50.05
-2.44	-53.71
-0.31	-55.85
0.92	-53.71
1.53	-47.61
2.44	-40.89
3.97	-36.62
5.19	-36.32
5.49	-36.93
3.97	-36.93
1.22	-36.62
-1.53	-39.67
-3.05	-46.08
-3.66	-51.88
-3.66	-51.88
-3.97	-44.25
-4.88	-33.26
-5.49	-26.25
-6.1	-28.38
-6.41	-38.15
-7.02	-49.13
-7.93	-54.32
-9.16	-51.57
-9.77	-44.86
-9.77	-40.89
-9.46	-42.72
-8.85	-48.22
-8.54	-51.27
-8.85	-46.08
-10.07	-34.79
-10.99	-24.11
-11.9	-20.75
-12.21	-25.94
-11.29	-32.65
-10.07	-33.26
-8.85	-25.33
-8.54	-14.65
-8.85	-11.9
-9.77	-21.06
-10.07	-38.15
-9.46	-51.88
-8.24	-55.54
-6.71	-50.66
-4.88	-44.25
-3.66	-42.42
-2.14	-43.95
-0.31	-42.42
1.83	-34.79
3.66	-24.11
4.58	-15.56
3.66	-12.21
1.22	-12.21
-2.14	-12.82
-4.58	-12.82
-5.8	-14.95
-4.88	-21.36
-2.75	-31.43
-1.22	-42.42
-0.61	-50.05
-0.92	-52.8
-1.22	-50.66
-1.22	-45.17
-1.53	-37.54
-2.75	-29.3
-3.97	-21.67
-4.88	-16.48
-3.05	-13.43
-1.53	-14.04
-1.22	-16.17
-1.83	-20.14
-3.05	-25.63
-3.97	-29.6
-5.19	-29.91
-6.41	-27.16
-7.32	-25.02
-6.71	-27.16
-5.19	-32.65
-2.75	-37.54
-0.61	-36.93
0.61	-29.6
0.31	-19.53
0	-12.21
-0.31	-10.99
0.31	-14.65
1.53	-18.62
3.05	-20.75
4.27	-22.58
5.8	-27.16
7.32	-33.57
8.85	-36.62
10.07	-31.13
10.38	-15.56
10.38	3.66
9.46	15.56
7.32	14.04
4.27	1.83
1.22	-12.21
-1.53	-21.67
-2.44	-24.11
-1.83	-22.28
-0.31	-19.23
0.61	-16.48
0.92	-13.43
0.61	-11.9
0.31	-13.43
-0.31	-16.78
-0.92	-18.62
-1.22	-16.48
-1.83	-10.99
-2.44	-6.1
-2.44	-5.19
-2.44	-8.24
-2.75	-13.43
-3.05	-17.09
-2.75	-18.01
-2.14	-17.09
-1.22	-14.65
-0.92	-10.99
-1.53	-6.1
-2.75	-1.83
-3.36	1.22
-2.44	2.14
0	1.22
1.83	-0.61
2.75	-3.66
3.05	-6.1
3.66	-6.71
5.19	-3.66
7.02	3.36
8.24	10.38
8.54	13.43
8.54	11.6
8.54	9.46
8.54	11.6
7.63	19.53
5.8	28.99
3.36	35.1
1.22	36.62
0.31	36.01
0.92	36.93
1.83	39.37
2.75	42.11
3.36	42.42
3.66	39.37
3.97	33.57
4.58	24.72
5.19	14.34
5.49	4.58
5.49	-2.44
5.49	-5.19
5.49	-4.58
5.19	-2.14
4.88	-0.61
4.27	0
3.66	-0.31
3.97	0
4.88	1.53
5.8	4.88
5.8	9.16
5.19	12.21
4.27	11.6
3.97	7.32
4.27	2.14
5.19	0.92
5.49	5.19
5.8	12.21
6.1	16.78
6.41	16.17
7.63	11.6
8.85	7.93
10.38	8.24
12.21	11.9
14.65	14.65
16.78	14.34
18.01	12.21
18.01	10.68
16.17	10.68
12.82	10.99
9.16	9.77
5.19	7.02
1.83	4.88
0.31	5.19
1.53	7.32
4.58	9.77
7.93	10.99
9.46	10.68
7.93	10.07
3.97	10.68
0.92	13.12
0.61	18.31
2.75	24.72
5.49	30.21
7.02	32.65
5.8	31.43
3.66	28.99
1.53	27.77
0.61	29.91
1.53	33.26
3.66	35.1
5.49	33.87
6.1	31.43
5.8	32.35
4.88	39.67
4.27	52.19
3.97	64.09
3.66	68.66
3.97	63.78
5.49	54.63
10.38	52.49
18.01	72.33
26.55	126.34
32.04	222.78
32.35	368.04
31.13	564.88
36.62	801.7
56.15	1041.26
87.59	1222.53
118.1	1283.87(R)
128.48	1202.39
106.81	1011.66
57.68	784.61
-1.83	589.9
-53.1	456.24
-85.14	372.31
-96.74	309.45
-91.55	246.58
-73.24	180.97
-46.08	120.54
-17.7	72.63
3.36	41.5
11.9	26.86
9.46	23.5
3.05	25.02
-1.22	25.63
-0.92	24.41
2.44	21.67
7.02	17.4
10.68	11.6
13.43	5.8
13.73	4.27
11.9	9.16
8.85	17.7
6.41	23.5
5.8	21.67
7.32	13.43
9.77	5.49
11.9	4.58
13.43	10.99
15.26	18.62
18.01	21.36
20.75	17.4
23.5	10.68
24.72	8.24
24.72	11.9
24.72	18.62
25.63	23.5
28.38	25.63
32.04	29.3
35.71	37.84
39.06	48.22
41.81	51.88
43.33	44.25
43.33	29.6
41.81	19.23
39.37	22.28
38.45	36.93
39.98	54.63
43.03	68.36
45.78	76.9
47.3	83.92
47.91	92.16
50.05	100.4
54.32	106.2
60.12	108.64
65.92	111.08
69.27	117.8
70.5	132.45
70.8	154.42
71.11	179.44
71.41	202.64
72.63	220.95
74.46	233.15
76.9	241.09
79.65	248.11
81.18	256.65
80.26	265.5
77.21	271.61
72.94	271.3
68.05	263.37
63.78	250.85
59.81	238.34
56.46	227.66
52.49	216.67
47.91	201.42
42.42	181.88
37.23	162.05
33.87	145.87
32.65	134.89
32.35	126.04
31.13	114.44
27.47	97.05
22.89	75.68
18.62	58.29
16.48	52.19
16.17	59.2
15.87	72.33
14.04	79.96
10.38	73.55
7.02	54.32
5.19	32.96
5.8	21.97
7.32	26.25
7.63	41.2
6.41	56.46
4.58	60.73
3.36	50.05
2.75	31.13
2.75	19.23
3.36	26.25
4.27	52.49
5.19	81.79
5.19	90.33
4.58	66.83
3.97	25.02
3.05	-4.88
2.14	-0.31
0.31	36.01
-2.14	75.38
-4.27	85.14
-4.58	57.37
-2.75	13.43
-0.31	-12.51
0.92	0.31
0.61	42.72
-0.92	80.57
-1.53	85.75
-0.61	55.54
2.44	11.6
6.1	-18.01
9.46	-19.84
11.9	-1.22
13.43	20.45
14.95	34.18
16.48	38.76
17.4	35.4
16.78	23.19
14.34	2.75
10.99	-18.62
7.63	-25.02
4.58	-5.8
2.44	32.65
2.14	65.92
3.05	65
4.58	22.28
5.49	-42.11
3.97	-88.5
0.61	-85.75
-3.05	-32.65
-4.88	38.45
-4.27	83.62
-1.83	73.55
0.31	15.56
0.31	-50.96
-1.83	-84.23
-4.58	-68.97
-6.1	-26.25
-7.02	9.16
-8.24	16.17
-9.46	0.92
-9.46	-17.09
-6.71	-26.25
-2.44	-27.77
0.31	-27.47
0.31	-26.25
-2.75	-20.45
-6.41	-10.38
-8.24	-1.83
-7.02	-0.31
-4.88	-5.49
-2.75	-12.82
-0.92	-16.48
0.31	-14.95
1.22	-9.77
1.53	-4.88
0.92	-4.58
0	-10.68
-0.61	-19.23
-1.22	-21.67
-1.53	-12.51
-2.14	1.83
-2.75	10.38
-3.66	7.32
-4.58	-2.14
-6.41	-10.07
-8.24	-12.82
-8.85	-15.56
-7.02	-22.89
-3.36	-28.08
-0.61	-21.67
-0.61	-3.05
-3.36	12.82
-5.49	10.07
-4.88	-11.6
-2.14	-36.01
-0.31	-43.33
-1.83	-27.16
-6.1	-0.92
-9.46	15.26
-9.16	10.99
-5.8	-7.93
-2.14	-24.11
-1.53	-25.33
-3.97	-12.82
-6.71	0
-7.93	0
-8.24	-14.04
-8.54	-28.99
-8.85	-29.91
-7.93	-14.34
-4.88	3.97
-1.53	9.77
-0.31	-0.61
-1.83	-17.09
-4.88	-25.33
-6.1	-18.62
-3.66	-1.83
1.53	13.43
7.32	18.62
10.38	14.34
9.46	4.58
3.97	-5.19
-3.97	-10.07
-10.07	-9.77
-10.99	-9.16
-6.1	-11.9
0.92	-18.31
5.49	-23.8
4.88	-21.97
0.61	-11.29
-3.97	2.14
-5.19	9.46
-3.66	6.41
-1.53	-4.27
-0.61	-16.17
-1.22	-23.5
-2.14	-22.28
-2.14	-14.65
-1.22	-2.75
-0.31	7.63
0.31	10.99
0	5.8
-1.22	-3.05
-3.36	-9.16
-5.8	-11.6
-7.63	-14.34
-7.93	-21.36
-7.63	-33.26
-6.71	-43.95
-6.41	-45.17
-6.1	-35.4
-5.19	-19.23
-3.66	-2.75
-1.22	9.46
0.92	14.95
2.14	14.34
1.83	8.85
0.61	2.14
-0.61	-2.14
-0.92	-1.53
-0.61	3.66
-0.92	9.46
-2.44	12.51
-4.58	11.9
-7.02	9.16
-8.24	6.41
-7.93	4.88
-7.02	3.36
-5.8	1.22
-4.88	-0.92
-3.97	-1.83
-3.05	-0.92
73.85	188.9
67.14	182.8
61.04	171.2
54.32	147.71
46.69	114.44
38.45	79.04
30.82	50.05
23.8	32.65
17.4	27.16
11.9	28.69
8.24	30.21
6.1	25.02
4.88	12.21
3.05	-2.44
0.31	-12.21
-3.05	-15.56
-5.49	-15.87
-7.02	-18.31
-8.24	-23.8
-10.07	-29.3
-12.51	-32.96
-14.65	-36.32
-15.56	-41.5
-14.34	-48.22
-11.29	-51.88
-7.63	-49.74
-4.88	-43.03
-4.27	-35.71
-6.1	-29.3
-8.85	-22.58
-10.07	-12.82
-7.63	-2.44
-3.05	2.14
1.22	-3.36
2.75	-15.56
0.92	-26.86
-2.75	-30.82
-6.71	-26.25
-10.38	-18.01
-13.73	-12.21
-16.17	-13.43
-16.48	-21.06
-14.04	-32.96
-10.07	-46.08
-7.63	-56.46
-7.93	-59.81
-9.77	-55.24
-10.99	-44.25
-10.68	-30.82
-9.16	-21.36
-8.54	-21.06
-8.54	-31.43
-8.85	-47
-9.77	-60.12
-12.21	-63.78
-16.78	-56.76
-20.14	-43.64
-19.53	-28.38
-11.9	-5.19
0	41.5
10.99	133.67
18.31	288.7
25.02	502.32
38.76	737.61
63.48	931.4
93.08	1020.51(R)
111.39	977.17
102.84	828.25
61.95	639.04
0.61	471.8
-61.34	351.26
-107.42	264.89
-132.75	191.65
-140.38	121.46
-134.28	57.98
-116.58	6.71
-87.89	-33.87
-54.32	-66.22
-25.63	-87.59
-9.77	-94.91
-7.63	-94.3
-12.82	-99.18
-18.92	-118.1
-20.75	-144.35
-18.62	-159.3
-14.65	-150.45
-11.29	-121.77
-9.77	-92.47
-10.07	-79.65
-10.68	-89.72
-10.38	-112
-8.54	-129.09
-7.02	-127.56
-6.71	-107.42
-7.32	-84.23
-7.32	-76.6
-5.49	-90.94
-1.83	-115.05
1.83	-128.17
4.58	-118.71
7.02	-96.13
9.77	-80.26
11.9	-83.31
12.82	-97.96
11.6	-108.64
9.16	-105.29
7.32	-91.25
7.63	-76.6
9.46	-66.83
12.21	-61.04
14.95	-54.93
17.4	-47
19.53	-38.45
21.97	-29.6
24.72	-19.84
27.16	-8.85
29.91	2.14
32.04	11.29
34.48	19.23
37.54	28.38
41.81	40.59
47.3	56.76
52.8	75.38
57.68	93.99
61.34	110.78
64.7	125.43
67.75	138.55
71.41	152.59
75.68	168.15
79.35	184.63
82.4	199.28
83.92	208.74
83.31	210.88
80.57	206.3
76.9	195.31
72.02	178.22
66.53	154.72
59.51	125.73
51.27	94.3
42.11	65.92
33.26	43.95
25.94	29.6
19.84	19.53
14.95	10.07
10.68	-0.92
6.41	-14.04
2.44	-27.77
-1.83	-39.98
-5.19	-49.74
-7.63	-55.54
-9.46	-57.37
-10.99	-56.15
-12.82	-53.71
-14.95	-52.19
-18.01	-52.8
-20.75	-55.85
-23.19	-59.81
-24.72	-64.09
-25.63	-67.75
-26.25	-71.72
-26.86	-75.99
-27.47	-79.65
-27.77	-81.79
-27.77	-81.79
-27.77	-80.87
-27.77	-79.96
-27.77	-80.57
-27.77	-81.79
-27.47	-81.79
-27.77	-79.35
-28.69	-74.46
-29.6	-68.05
-29.91	-61.65
-29.3	-56.46
-27.77	-53.1
-25.94	-52.19
-24.41	-54.02
-24.41	-58.29
-25.02	-62.87
-25.94	-67.75
-26.25	-72.02
-26.25	-76.29
-26.25	-80.57
-26.25	-83.62
-26.55	-84.23
-26.86	-81.79
-27.16	-76.9
-26.25	-71.72
-25.33	-68.66
-24.41	-68.36
-23.8	-69.58
-23.19	-69.27
-22.58	-66.53
-21.36	-62.26
-20.75	-60.12
-21.36	-61.95
-23.8	-68.36
-27.16	-76.9
-30.21	-84.84
-32.04	-89.72
-32.35	-91.55
-32.35	-90.94
-32.04	-89.42
-32.04	-87.89
-32.35	-87.28
-32.04	-86.98
-32.04	-87.28
-32.35	-87.89
-33.26	-88.5
-34.48	-89.42
-35.4	-89.72
-35.1	-89.42
-33.57	-87.59
-31.74	-84.84
-30.21	-82.09
-29.91	-80.57
-30.21	-81.79
-30.52	-84.53
-30.82	-87.89
-30.21	-90.03
-29.6	-90.33
-29.6	-89.11
-29.6	-87.59
-30.21	-86.67
-30.21	-86.98
-29.91	-87.89
-28.69	-89.72
-27.16	-91.86
-26.25	-93.69
-25.94	-94.3
-26.25	-92.77
-26.55	-90.03
-26.25	-86.98
-25.33	-84.84
-24.72	-84.23
-25.33	-83.62
-27.47	-81.79
-30.21	-79.96
-32.65	-79.65
-33.87	-81.79
-34.18	-85.14
-33.57	-86.67
-33.26	-83.92
-33.26	-79.35
-33.26	-75.68
-33.26	-76.29
-33.26	-80.57
-33.57	-85.14
-33.87	-87.89
-34.79	-87.89
-35.4	-86.36
-35.71	-83.62
-35.71	-80.57
-35.71	-77.21
-35.4	-74.77
-34.79	-75.07
-34.18	-79.65
-33.57	-86.98
-33.26	-93.69
-33.26	-96.13
-32.65	-93.08
-31.43	-86.98
-29.6	-81.79
-28.08	-79.65
-27.16	-80.26
-26.86	-80.26
-27.16	-78.43
-27.77	-75.99
-28.99	-75.07
-30.52	-75.99
-32.04	-76.6
-32.04	-74.16
-30.82	-68.66
-28.38	-63.48
-26.55	-61.95
-25.94	-64.39
-26.86	-68.05
-28.69	-69.27
-30.82	-68.66
-32.65	-68.36
-32.96	-70.19
-32.04	-73.85
-30.52	-76.9
-28.69	-77.82
-27.16	-76.29
-26.55	-73.55
-26.86	-69.89
-27.47	-65.31
-28.38	-61.34
-28.99	-58.59
-28.99	-57.37
-28.38	-56.46
-27.16	-54.63
-26.25	-52.49
-26.25	-51.88
-26.86	-56.46
-26.86	-64.39
-26.55	-70.8
-25.63	-71.11
-25.33	-64.39
-25.94	-54.32
-25.63	-45.17
-22.89	-33.57
-16.78	-7.93
-9.77	47.61
-5.8	147.4
-5.8	301.82
-4.58	509.95
6.71	749.21
31.74	967.71
63.78	1099.85
86.67	1100.46(R)
83.92	973.82
50.96	773.93
-1.53	571.9
-56.15	412.29
-100.1	299.38
-127.56	216.06
-138.55	148.01
-133.67	89.11
-113.83	37.84
-83.92	-9.77
-53.1	-54.63
-31.74	-91.86
-22.28	-112.92
-21.67	-117.49
-22.89	-115.05
-22.28	-115.05
-19.84	-121.15
-18.62	-128.78
-19.53	-133.06
-20.75	-134.28
-21.06	-134.89
-19.23	-135.5
-15.87	-133.67
-12.51	-129.09
-10.38	-125.12
-9.77	-126.65
-9.77	-137.02
-9.77	-152.59
-9.16	-164.18
-8.24	-163.27
-7.63	-148.32
-7.63	-126.04
-8.24	-109.56
-8.24	-108.95
-7.93	-121.46
-6.71	-135.19
-4.58	-137.33
-1.53	-126.34
1.53	-110.47
4.27	-101.32
6.41	-102.84
7.63	-108.34
9.16	-108.03
11.29	-97.66
14.34	-81.18
17.4	-66.53
19.23	-58.9
18.92	-58.9
17.7	-61.34
17.09	-61.65
18.31	-57.68
20.75	-50.66
23.5	-43.03
25.63	-35.71
27.16	-26.86
29.3	-14.34
32.96	0.61
37.54	14.95
42.11	25.94
46.69	34.48
50.96	46.69
55.24	68.36
60.12	99.49
64.39	134.28
67.75	164.49
69.58	184.63
70.5	194.09
71.72	195.62
73.55	194.7
74.77	193.79
75.07	193.18
73.24	188.6
68.97	177.31
63.48	159.91
57.68	142.52
52.19	130.92
48.22	126.04
44.25	122.07
40.28	111.08
35.4	90.33
29.91	64.39
24.41	40.89
19.84	24.11
15.87	11.9
12.21	0.61
8.24	-11.29
4.27	-21.36
0.92	-27.16
-1.53	-29.91
-3.05	-32.65
-3.97	-39.98
-4.88	-51.57
-5.8	-63.78
-7.02	-72.33
-8.85	-74.16
-10.99	-70.19
-12.82	-63.48
-13.43	-57.98
-13.12	-56.15
-11.6	-57.98
-10.38	-59.81
-10.07	-57.98
-10.99	-51.57
-12.51	-42.72
-13.12	-37.54
-12.51	-39.98
-10.68	-48.83
-8.54	-58.59
-7.02	-63.17
-5.8	-61.04
-5.19	-53.41
-4.58	-44.56
-3.66	-37.84
-2.44	-34.48
-0.92	-32.96
0.92	-31.74
2.75	-30.21
4.27	-28.99
4.58	-29.6
3.97	-34.79
2.75	-43.95
0.92	-52.49
-0.92	-54.93
-1.83	-49.44
-2.14	-38.76
-1.53	-29.6
-0.31	-27.77
0	-35.71
-0.61	-51.27
-1.83	-68.36
-3.05	-80.26
-3.97	-82.7
-4.58	-75.99
-5.19	-67.75
-6.1	-67.44
-7.02	-80.57
-7.93	-101.93
-8.24	-119.63
-8.24	-123.9
-8.24	-112.61
-7.93	-93.99
-8.24	-80.26
-8.54	-79.65
-8.54	-90.64
-8.54	-105.9
-8.85	-116.58
-9.46	-118.71
-10.68	-115.05
-11.9	-111.39
-12.82	-111.08
-12.82	-112.61
-12.51	-113.22
-12.51	-113.53
-13.12	-115.97
-14.34	-120.54
-14.65	-122.68
-14.65	-116.58
-14.34	-101.01
-15.26	-83.31
-17.4	-73.55
-19.53	-77.21
-20.75	-91.55
-20.45	-108.34
-19.53	-120.54
-19.53	-126.65
-20.75	-126.34
-21.97	-122.07
-21.97	-117.49
-21.06	-117.19
-20.14	-123.29
-20.14	-132.45
-21.06	-136.11
-21.97	-128.78
-21.97	-113.83
-21.67	-101.32
-21.06	-99.79
-21.06	-108.95
-21.36	-119.02
-21.97	-120.54
-22.58	-111.69
-22.58	-98.27
-21.36	-88.81
-18.92	-89.11
-16.17	-99.79
-14.04	-113.53
-12.51	-121.77
-11.6	-119.32
-11.29	-107.73
-10.99	-95.21
-11.6	-89.42
-13.12	-93.38
-14.95	-101.62
-16.48	-107.12
-16.78	-106.51
-15.87	-101.32
-14.95	-96.13
-14.34	-94.3
-15.56	-96.74
-19.23	-103.15
-23.8	-111.08
-26.86	-115.66
-25.63	-108.64
-20.14	-80.57
-13.73	-21.67
-11.6	77.51
-14.65	227.05
-16.17	429.69
-6.1	666.5
20.75	889.59
57.68	1034.24
86.98	1053.16(R)
90.94	947.57
62.87	766.6
12.82	575.87
-42.72	417.48
-89.11	296.02
-119.63	198.06
-131.84	112.61
-127.26	40.28
-107.12	-12.82
-76.6	-49.44
-45.17	-78.13
-22.28	-104.06
-11.6	-126.34
-9.77	-140.69
-10.07	-145.57
-9.46	-144.35
-7.02	-140.99
-5.49	-138.24
-6.1	-136.41
-7.93	-135.5
-9.46	-135.5
-9.46	-135.19
-7.93	-133.06
-6.1	-128.17
-4.27	-121.46
-3.66	-115.05
-3.97	-111.39
-4.27	-110.47
-4.88	-109.56
-4.88	-106.51
-4.58	-100.1
-3.97	-92.47
-3.05	-86.98
-2.14	-86.06
-0.61	-91.86
1.22	-102.54
3.05	-114.75
4.27	-122.68
4.88	-123.6
5.49	-117.49
6.71	-108.34
8.85	-101.32
11.6	-99.18
14.65	-100.1
17.09	-101.01
19.23	-98.57
21.97	-91.55
25.33	-81.79
29.91	-71.72
34.79	-63.17
38.76	-56.15
41.2	-50.05
42.42	-42.72
43.95	-33.26
46.69	-22.28
50.66	-10.99
54.32	0
57.37	10.99
60.12	24.11
62.87	39.98
74.77	91.25
77.51	102.54
79.35	110.17
80.87	116.88
82.09	124.51
82.4	133.36
81.18	141.3
78.43	144.35
74.77	139.47
69.89	128.17
64.7	114.75
58.9	102.84
52.8	92.16
45.78	79.65
38.45	63.48
31.13	44.86
25.02	26.25
20.75	10.38
18.62	-3.97
18.01	-17.7
17.4	-30.82
16.17	-40.28
13.43	-43.64
9.77	-41.81
5.49	-38.76
2.14	-39.06
0	-44.25
-1.53	-51.27
-2.44	-55.85
-3.36	-55.54
-3.97	-51.27
-3.66	-47.91
-2.75	-49.44
-1.53	-55.54
-0.61	-62.56
-0.61	-65.92
-1.53	-62.87
-2.44	-55.54
-3.66	-47.91
-5.19	-43.03
-7.02	-42.11
-8.54	-43.64
-9.77	-45.17
-9.77	-45.78
-8.85	-46.08
-6.71	-47.91
-4.88	-51.27
-3.36	-56.46
-2.75	-61.34
-2.75	-62.87
-3.66	-60.42
-4.27	-54.93
-4.88	-50.66
-4.58	-49.74
-3.97	-52.19
-3.05	-53.1
-2.14	-49.44
-2.75	-42.42
-4.27	-37.54
-6.41	-39.37
-8.54	-46.08
-10.68	-52.19
-11.9	-52.49
-12.51	-48.83
-11.6	-47.91
-9.77	-53.71
-8.54	-63.48
-8.54	-69.58
-10.38	-68.05
-12.82	-60.12
-14.04	-53.1
-14.04	-51.57
-13.12	-54.32
-12.82	-56.46
-13.43	-55.54
-14.04	-52.19
-13.73	-50.66
-12.21	-53.71
-10.99	-60.12
-10.99	-65.31
-12.51	-66.22
-13.12	-62.87
-11.6	-58.59
-8.54	-57.68
-6.71	-60.73
-8.24	-65.92
-11.6	-69.58
-13.43	-70.8
-11.29	-69.89
-6.71	-68.66
-3.05	-67.44
-3.66	-66.53
-7.02	-65.31
-10.99	-62.56
-12.82	-58.59
-12.82	-54.32
-11.6	-51.88
-10.38	-51.88
-9.46	-51.88
-8.54	-49.13
-7.93	-43.33
-7.32	-37.54
-7.02	-37.23
-7.02	-45.17
-7.02	-58.59
-7.02	-71.11
-7.02	-75.99
-6.41	-69.58
-5.8	-53.71
-5.19	-37.23
-5.19	-28.69
-5.19	-33.87
-4.88	-49.44
-3.97	-64.39
-3.36	-67.44
-2.75	-56.46
-2.14	-39.67
-0.31	-28.38
1.83	-29.91
3.66	-39.37
3.36	-47.3
0.92	-46.08
-2.14	-37.84
-4.27	-31.74
-5.19	-35.1
-5.49	-46.08
-5.8	-56.15
-6.41	-57.98
-6.41	-51.88
-5.49	-44.25
-4.58	-40.59
-3.97	-41.81
-3.66	-44.56
-3.36	-45.47
-1.53	-43.64
1.83	-40.59
5.49	-38.76
7.02	-39.67
5.8	-42.72
1.83	-45.17
-2.44	-43.64
-4.27	-37.84
-2.44	-32.96
1.22	-34.48
4.27	-42.72
5.49	-50.05
3.97	-49.74
2.14	-42.72
1.83	-35.71
3.66	-36.01
7.02	-43.33
9.77	-51.57
9.16	-54.93
5.19	-52.49
-0.92	-46.69
-5.49	-39.67
-6.1	-33.26
-3.05	-28.69
0.92	-27.77
3.66	-30.52
4.88	-33.87
4.58	-33.57
3.36	-30.21
0.61	-28.08
-4.58	-29.6
-10.07	-32.35
-13.12	-31.74
-10.99	-24.72
-4.27	-14.34
4.27	-7.63
9.77	-10.07
10.38	-18.62
5.8	-27.16
0.92	-28.99
-0.31	-18.92
4.88	8.85
14.34	63.17
23.8	154.72
29.3	294.49
31.74	486.45
37.23	716.25
52.8	942.38
77.51	1103.21
100.4	1141.66(R)
105.29	1043.09
79.65	850.22
26.55	639.34
-37.54	473.63
-93.08	366.21
-127.26	292.36
-137.63	222.78
-128.78	147.71
-106.51	79.65
-76.29	32.96
-44.86	4.88
-20.45	-14.95
-7.93	-34.48
-4.88	-54.02
-5.49	-69.89
-4.27	-80.26
0	-86.67
4.88	-89.72
7.63	-88.81
8.54	-82.7
8.24	-73.55
8.24	-68.05
9.77	-72.63
12.82	-86.36
15.87	-97.35
17.4	-91.55
17.09	-65
16.78	-30.82
17.4	-12.51
20.14	-26.25
22.89	-67.14
24.11	-112.61
23.5	-134.89
21.67	-119.02
20.45	-73.55
19.53	-23.5
19.23	2.14
19.53	-12.82
20.45	-57.07
22.28	-98.57
24.11	-109.25
25.33	-84.23
24.72	-44.86
22.89	-19.84
21.06	-21.36
20.45	-36.93
21.36	-48.83
22.58	-50.05
23.8	-47.61
25.02	-50.05
26.86	-57.07
29.6	-59.81
33.57	-50.96
37.54	-31.43
41.5	-7.93
45.17	14.04
49.13	31.74
53.1	46.39
56.76	58.9
59.81	71.41
62.56	83.92
66.22	97.05
71.41	110.17
77.82	122.99
84.23	136.11
88.5	150.45
90.03	165.71
89.11	181.27
86.98	194.4
84.53	203.25
82.4	206.91
79.96	205.08
76.6	198.36
72.02	188.29
66.53	175.17
60.12	158.69
53.41	140.08
47	120.54
40.28	100.71
33.87	81.79
27.77	64.39
21.97	48.52
17.09	34.18
13.12	21.97
10.07	12.51
7.32	5.49
4.88	0.92
2.14	-2.75
-0.92	-7.63
-3.66	-15.26
-5.8	-25.33
-7.32	-34.18
-8.24	-38.45
-9.16	-37.54
-10.68	-34.79
-11.9	-33.87
-12.82	-36.32
-12.82	-38.15
-12.21	-35.1
-11.29	-26.25
-10.38	-15.26
-9.77	-7.32
-8.54	-5.49
-6.41	-7.93
-4.27	-9.46
-2.44	-7.93
-1.53	-5.19
-1.83	-4.88
-2.14	-9.16
-2.14	-16.78
-2.14	-22.58
-2.14	-21.67
-2.75	-13.43
-3.66	-1.22
-4.58	8.85
-4.88	12.21
-3.97	8.85
-3.05	2.44
-2.44	-2.44
-2.44	-4.88
-3.05	-6.41
-3.97	-7.93
-5.19	-9.46
-5.8	-9.77
-6.1	-10.38
-5.49	-13.43
-4.27	-20.45
-3.36	-28.99
-2.75	-34.79
-3.05	-35.1
-3.97	-31.74
-5.49	-28.99
-6.71	-29.91
-7.93	-32.65
-8.54	-33.87
-9.16	-31.43
-10.68	-27.47
-12.21	-25.02
-13.43	-26.25
-14.04	-30.52
-13.43	-35.4
-12.21	-39.06
-11.29	-40.28
-10.99	-41.5
-10.99	-44.56
-11.29	-50.96
-11.29	-59.51
-11.29	-67.14
-11.29	-70.5
-11.29	-68.97
-11.9	-64.7
-12.51	-61.65
-13.43	-62.26
-14.34	-67.14
-15.26	-74.16
-15.56	-79.65
-14.95	-80.57
-14.34	-75.99
-14.04	-68.05
-14.95	-60.73
-16.48	-56.76
-18.31	-57.37
-19.53	-61.65
-19.84	-68.05
-19.53	-74.77
-18.92	-79.65
-18.31	-81.18
-17.7	-78.13
-17.4	-72.02
-17.7	-66.22
-18.31	-64.09
-18.62	-65.61
-19.23	-68.36
-19.23	-69.89
-19.23	-69.58
-19.23	-70.8
-18.62	-74.46
-17.7	-78.74
-16.17	-79.96
-14.95	-76.9
-14.95	-71.41
-15.56	-69.27
-16.78	-72.33
-17.4	-78.13
-17.4	-81.48
-16.48	-79.65
-15.56	-73.24
-15.26	-65.92
-15.26	-60.73
-15.26	-58.9
-15.26	-61.65
-15.26	-68.97
-15.56	-80.26
-15.87	-91.25
-16.48	-97.05
-16.78	-93.69
-17.09	-82.4
-16.78	-68.97
-15.87	-58.9
-14.65	-56.15
-13.73	-60.42
-12.82	-68.66
-12.82	-77.51
-13.43	-84.23
-14.04	-87.28
-14.34	-86.06
-14.04	-81.48
-13.73	-76.6
-14.34	-74.16
-15.56	-75.68
-16.78	-79.65
-17.09	-82.4
-16.48	-79.35
-14.65	-70.5
-12.82	-60.42
-11.6	-54.02
-10.99	-54.63
-11.6	-61.65
-12.82	-71.41
-14.34	-79.35
-15.87	-82.7
-17.09	-82.09
-17.09	-78.74
-16.78	-75.99
-15.87	-75.07
-14.95	-75.07
-14.34	-74.16
-13.73	-71.11
-13.43	-66.22
-13.43	-61.65
-13.43	-59.81
-14.04	-62.56
-14.65	-69.27
-15.26	-76.6
-15.26	-79.35
-14.34	-74.46
-12.51	-64.09
-10.68	-54.02
-9.16	-50.35
-8.24	-54.63
-7.02	-63.78
-6.41	-72.33
-5.8	-77.51
-5.49	-78.74
-5.49	-76.29
-5.19	-71.72
-5.19	-67.44
-5.19	-65.31
-6.1	-66.53
-7.02	-70.5
-7.93	-73.85
-8.24	-75.07
-8.54	-72.63
-8.54	-66.22
-8.85	-56.76
-9.16	-47
-9.46	-40.28
-9.16	-38.76
-8.54	-41.2
-7.93	-45.17
-8.24	-47
-9.16	-46.69
-10.68	-46.69
-11.6	-51.57
-11.9	-62.26
-11.29	-75.07
-10.68	-84.53
-10.99	-86.67
-12.21	-81.79
-13.12	-74.16
-13.43	-68.66
-12.82	-67.75
-12.51	-70.19
-12.82	-72.33
-13.43	-71.72
-13.73	-67.44
-12.51	-60.42
-10.38	-52.8
-7.93	-47.91
-6.1	-47.3
-4.88	-50.35
-4.88	-55.24
-4.88	-58.9
-4.88	-60.73
-4.27	-62.26
-3.66	-64.7
-3.05	-68.36
-3.05	-71.72
-3.97	-72.94
-6.1	-71.72
-9.46	-68.66
-13.43	-63.78
-15.56	-56.76
-14.04	-42.42
-7.63	-11.9
0.92	46.69
6.1	144.96
5.8	293.58
3.97	494.08
10.07	728.15
30.21	951.23
61.04	1101.68
87.59	1129.76(R)
92.47	1027.83
68.05	839.54
21.67	633.85
-30.82	463.87
-75.38	342.71
-105.29	256.35
-118.71	183.11
-115.36	113.53
-96.13	50.66
-65.92	-0.92
-33.87	-40.59
-10.07	-67.75
0.92	-83.92
2.14	-92.16
-0.31	-98.27
-1.83	-103.76
-1.53	-107.73
-0.92	-107.73
-0.31	-104.68
-0.31	-103.45
-0.92	-108.34
-2.14	-117.19
-3.05	-124.51
-3.66	-125.12
-2.75	-119.02
-0.92	-110.17
0.92	-102.23
2.14	-98.27
2.44	-98.27
2.75	-100.71
2.44	-102.23
1.53	-99.49
0.61	-91.25
-0.31	-81.48
0.31	-75.68
2.44	-77.51
5.19	-85.75
7.63	-96.13
9.46	-103.45
10.38	-104.98
10.99	-101.32
12.21	-94.91
13.73	-87.59
16.17	-80.87
18.62	-75.07
21.67	-69.58
25.33	-64.7
29.3	-59.51
32.65	-52.8
35.1	-43.03
36.01	-31.13
35.71	-19.53
35.4	-9.77
36.01	-1.53
38.45	7.02
41.2	17.4
43.64	30.52
45.47	44.86
47.3	59.2
50.05	72.63
54.02	84.84
58.59	97.05
62.87	108.95
66.22	120.54
68.66	131.53
70.8	142.21
73.24	151.67
76.6	160.52
79.96	168.15
82.09	175.17
82.4	181.88
79.96	187.07
75.07	187.68
69.27	180.97
63.17	166.93
57.68	148.01
52.49	128.17
47.61	109.56
42.42	92.47
37.54	75.07
32.65	56.76
28.38	39.67
24.72	25.63
21.67	15.56
18.62	8.54
15.56	2.14
11.6	-5.8
7.63	-14.95
4.58	-22.89
3.05	-26.25
2.75	-24.11
3.05	-20.14
3.36	-18.92
2.75	-24.11
2.14	-34.18
1.53	-43.03
1.53	-45.47
1.22	-40.89
0.61	-33.57
-0.92	-29.3
-3.05	-29.91
-4.58	-34.79
-4.27	-40.59
-2.75	-44.25
-0.92	-43.03
0	-37.23
-0.61	-28.99
-2.14	-22.28
-3.05	-21.36
-3.05	-25.94
-2.14	-31.43
-0.61	-33.26
0.92	-29.91
2.75	-24.72
4.88	-21.67
6.71	-21.97
8.54	-23.5
9.46	-22.58
10.07	-18.62
9.77	-13.43
8.24	-10.68
6.1	-13.12
3.66	-21.36
2.75	-32.04
3.36	-41.2
5.19	-44.86
5.8	-42.11
3.97	-35.4
0.92	-29.3
-1.83	-27.47
-2.44	-30.21
-1.53	-34.48
-1.53	-35.71
-2.44	-32.96
-3.66	-28.69
-3.97	-25.63
-3.66	-24.72
-3.66	-25.63
-4.58	-27.47
-6.41	-31.43
-7.63	-38.45
-7.02	-46.39
-5.8	-50.35
-5.49	-47
-6.71	-37.54
-9.16	-28.38
-10.68	-25.94
-10.99	-32.04
-9.77	-41.5
-8.54	-47
-7.63	-44.56
-7.32	-36.01
-6.1	-26.55
-4.58	-20.45
-2.44	-20.14
-1.53	-24.41
-2.75	-30.52
-4.58	-36.32
-6.41	-40.89
-7.02	-42.72
-7.93	-42.42
-9.77	-39.67
-11.9	-34.48
-12.82	-28.69
-10.99	-24.41
-7.02	-24.41
-3.36	-28.69
-1.83	-36.32
-2.75	-44.86
-4.88	-50.66
-6.71	-51.88
-7.63	-47.3
-7.63	-39.67
-7.02	-32.96
-6.41	-31.43
-5.8	-35.71
-5.49	-41.5
-5.49	-43.03
-5.8	-38.15
-6.1	-30.82
-6.1	-27.16
-5.8	-30.21
-5.19	-38.45
-4.27	-46.69
-3.66	-50.66
-3.36	-49.13
-3.97	-43.95
-4.88	-38.15
-5.8	-33.57
-5.19	-31.13
-4.27	-28.99
-3.66	-25.33
-5.19	-20.75
-8.54	-18.31
-11.29	-21.36
-12.21	-30.52
-11.6	-42.42
-10.07	-49.13
-9.16	-47
-8.54	-37.54
-7.93	-28.38
-7.32	-27.16
-7.63	-34.79
-9.16	-43.64
-11.6	-44.25
-13.43	-35.1
-13.43	-23.8
-11.29	-20.75
-7.93	-29.3
-4.88	-41.81
-3.05	-47.3
-3.05	-40.59
-4.58	-26.86
-6.41	-15.56
-7.93	-12.82
-8.85	-17.4
-9.46	-25.63
-9.77	-32.35
-9.46	-33.26
-7.63	-29.6
-5.19	-24.11
-1.83	-21.67
0.61	-26.25
1.83	-36.62
0.31	-46.39
-3.05	-47.3
-6.41	-38.45
-8.54	-25.94
-7.93	-18.62
-6.1	-20.45
-3.36	-28.38
-0.61	-36.01
1.83	-38.45
3.66	-37.84
3.05	-38.15
-0.61	-40.59
-6.41	-41.2
-10.68	-34.18
-10.68	-20.14
-6.41	-4.88
-0.92	2.44
1.22	-2.14
-1.83	-13.12
-6.71	-21.36
-10.38	-22.58
-10.07	-19.53
-6.41	-18.31
-1.53	-21.97
1.53	-28.69
1.83	-33.57
-0.31	-33.87
-2.44	-29.91
-3.05	-23.5
-2.14	-16.17
0.61	-9.77
2.75	-6.41
3.66	-6.1
3.05	-7.32
1.83	-6.71
2.14	-3.05
3.97	0.61
6.41	-0.61
7.02	-8.24
4.27	-21.36
0	-35.1
-3.36	-43.33
-3.66	-42.72
-0.92	-32.35
1.83	-14.95
2.14	1.83
0.61	8.85
-1.22	2.75
-1.53	-11.9
0.31	-26.25
2.75	-32.35
4.58	-29.3
5.8	-20.14
5.49	-11.29
3.66	-6.71
1.22	-7.32
-0.61	-10.99
-0.92	-14.65
0.92	-16.17
2.75	-15.87
4.27	-17.4
4.88	-22.58
4.58	-28.69
4.27	-30.21
4.27	-23.8
3.97	-12.21
3.36	-2.44
3.05	-1.53
3.36	-9.77
3.97	-21.67
4.88	-30.52
5.8	-33.87
6.1	-32.96
5.49	-30.52
3.97	-28.08
1.83	-25.02
0	-20.14
-1.22	-14.65
-1.22	-10.99
-0.31	-9.46
0.61	-9.46
1.53	-8.54
1.83	-6.41
1.22	-3.97
-0.31	-2.75
-2.14	-3.66
-3.66	-6.41
-4.58	-9.16
-4.88	-11.29
-4.88	-11.9
-4.58	-10.38
-3.97	-6.71
-2.14	-1.22
-0.31	3.97
0.92	7.63
0.61	8.85
-0.92	8.85
-2.14	8.24
-3.05	8.54
-2.75	9.77
-2.14	12.51
-1.83	15.87
-1.53	18.62
-2.14	20.14
-3.36	18.92
-5.19	15.26
-4.88	12.21
-0.61	18.92
7.63	50.05
17.7	119.32
24.72	237.12
26.86	408.02
28.08	625.31
36.62	862.43
57.07	1069.64
83.62	1185.61(R)
100.71	1168.52
90.94	1026.31
50.05	816.96
-10.38	613.4
-69.58	461.73
-112	362.85
-133.06	292.05
-135.19	225.83
-123.29	158.69
-98.88	97.35
-66.53	48.52
-33.57	12.82
-10.07	-10.68
0.61	-22.58
1.22	-27.16
-0.61	-29.91
-0.61	-35.1
1.53	-43.33
3.66	-51.88
4.58	-59.51
4.88	-66.83
5.19	-73.85
6.1	-79.35
7.32	-79.96
8.85	-74.46
10.07	-65
11.6	-56.76
13.43	-52.49
14.65	-52.49
15.56	-54.32
14.65	-55.54
12.51	-54.02
10.38	-51.57
8.85	-49.44
9.16	-49.44
11.29	-50.05
13.43	-49.74
14.95	-46.69
14.95	-40.59
14.65	-33.87
14.34	-29.91
14.65	-30.21
15.56	-33.26
17.09	-35.71
18.62	-35.1
20.45	-29.91
22.89	-22.28
25.33	-15.87
27.16	-13.73
28.69	-18.01
29.91	-27.16
31.43	-35.71
33.57	-37.84
36.01	-28.69
38.15	-9.77
39.37	13.43
40.28	33.87
42.11	47.3
44.86	54.63
48.52	57.98
52.19	62.26
55.24	69.27
57.98	80.57
60.73	94.6
63.78	109.86
66.53	124.82
67.75	139.77
67.75	154.42
67.14	169.07
66.83	183.11
67.14	195.62
67.75	205.99
66.83	212.1
64.09	210.57
59.81	201.72
55.24	187.68
51.27	172.12
47.3	157.17
43.03	142.21
38.45	124.51
33.87	103.15
29.91	80.87
26.55	61.04
22.58	47
18.62	39.67
14.65	37.54
11.6	37.54
9.46	35.1
7.63	27.16
5.49	14.34
3.36	-0.61
1.22	-14.65
0	-25.33
-0.92	-32.04
-2.14	-34.79
-3.97	-33.57
-5.8	-30.21
-7.02	-26.25
-7.32	-23.5
-6.71	-21.97
-6.1	-21.36
-5.8	-22.89
-6.41	-27.16
-7.93	-33.26
-9.16	-39.37
-10.38	-43.03
-10.99	-43.64
-10.99	-40.89
-10.99	-36.01
-10.07	-29.91
-8.54	-25.33
-6.71	-25.33
-5.49	-30.21
-5.19	-36.01
-5.49	-37.84
-6.41	-34.18
-6.71	-27.16
-6.71	-21.67
-6.1	-21.36
-6.1	-25.02
-6.1	-28.38
-6.1	-28.69
-5.8	-26.25
-5.19	-21.97
-3.97	-19.23
-3.66	-20.75
-4.27	-27.16
-6.1	-36.93
-8.24	-47
-9.77	-54.32
-10.38	-56.76
-10.07	-54.63
-9.46	-50.05
-8.85	-46.69
-8.54	-46.39
-8.54	-49.44
-8.54	-53.41
-9.16	-56.46
-10.38	-57.37
-12.51	-57.68
-14.65	-58.9
-16.78	-61.34
-17.4	-64.09
-17.09	-67.44
-15.87	-71.41
-14.95	-75.99
-15.26	-79.96
-16.78	-81.18
-18.92	-78.13
-21.36	-73.24
-22.58	-69.58
-23.19	-70.5
-23.19	-74.77
-22.28	-78.43
-21.67	-78.13
-21.06	-75.07
-20.75	-72.63
-20.75	-73.85
-21.36	-77.82
-21.67	-80.87
-20.75	-80.57
-19.23	-79.96
-17.7	-83.62
-17.09	-92.77
-17.09	-103.15
-17.4	-108.34
-17.4	-104.06
-17.09	-93.38
-16.78	-81.79
-16.48	-74.77
-16.17	-73.24
-15.26	-75.38
-14.34	-79.04
-14.34	-83.92
-15.26	-89.11
-17.4	-93.69
-19.84	-94.91
-21.06	-90.33
-21.36	-80.57
-20.45	-70.5
-19.23	-65.31
-18.62	-68.05
-18.92	-76.29
-19.53	-83.62
-20.45	-86.67
-21.06	-85.45
-21.06	-84.84
-21.06	-87.59
-21.36	-92.16
-21.67	-93.99
-21.97	-90.33
-22.28	-83.31
-22.28	-78.74
-22.58	-80.26
-23.19	-85.14
-24.11	-87.89
-24.41	-85.75
-24.41	-81.18
-23.5	-79.65
-21.97	-83.01
-20.45	-87.28
-19.23	-86.06
-18.31	-77.21
-18.01	-66.22
-18.31	-61.65
-19.23	-68.97
-20.14	-83.31
-19.23	-92.16
-15.26	-79.96
-7.93	-33.57
0	51.57
4.88	175.48
6.1	337.83
9.46	534.67
22.89	745.85
48.52	930.79
77.51	1034.85(R)
94.3	1021.12
84.53	896.61
46.69	711.06
-7.02	524.9
-59.81	374.45
-100.71	262.15
-126.04	174.26
-135.8	98.57
-130.62	35.4
-111.08	-11.9
-81.79	-45.47
-51.57	-71.11
-29.91	-90.33
-19.53	-102.84
-18.01	-108.95
-18.92	-111.69
-19.23	-113.83
-18.01	-116.88
-17.09	-119.32
-16.78	-120.54
-17.4	-119.93
-17.4	-118.71
-16.48	-116.58
-14.65	-112.61
-11.9	-107.12
-8.85	-101.62
-7.02	-97.96
-6.41	-96.13
-7.02	-96.74
-7.32	-99.49
-6.41	-104.06
-4.88	-109.56
-3.66	-113.83
-3.05	-114.14
-3.66	-111.08
-4.58	-105.9
-5.19	-100.71
-5.49	-96.44
-4.88	-90.94
-3.97	-83.31
-2.44	-75.99
-0.92	-71.41
0.61	-69.89
1.83	-69.89
3.66	-68.36
5.8	-65.92
8.54	-64.39
10.38	-64.39
11.9	-61.95
13.43	-52.19
15.87	-35.4
19.23	-16.78
22.89	-4.58
26.25	-0.92
29.6	-2.14
33.26	-0.61
37.54	7.02
42.42	20.75
47	37.23
51.27	53.71
54.93	71.11
57.98	89.42
60.12	109.25
61.65	130.31
62.56	151.06
63.78	171.51
65.92	190.12
68.97	204.47
71.72	213.01
72.33	216.06
70.19	214.23
66.22	207.82
61.65	196.53
56.76	180.05
51.88	159.3
45.47	137.02
38.45	115.66
31.74	96.74
25.63	79.96
20.75	64.09
15.87	47.91
10.68	30.21
5.8	11.29
2.44	-8.54
0.61	-27.77
-0.31	-44.86
-1.83	-57.98
-4.27	-66.53
-6.71	-70.8
-8.54	-72.63
-9.46	-73.55
-9.77	-75.07
-10.68	-77.82
-12.21	-80.87
-14.04	-83.01
-15.56	-82.7
-16.17	-79.35
-15.87	-74.77
-15.26	-72.63
-14.65	-75.07
-14.34	-80.26
-14.04	-84.84
-14.34	-85.75
-15.26	-83.31
-16.78	-79.65
-18.92	-77.51
-20.14	-77.51
-19.53	-78.43
-17.7	-79.96
-16.48	-82.4
-17.7	-86.36
-21.36	-90.64
-25.02	-93.69
-27.16	-94.3
-26.25	-93.38
-23.5	-92.47
-21.06	-91.86
-19.84	-90.94
-19.23	-89.42
-18.31	-88.81
-17.09	-92.16
-16.17	-99.79
-15.87	-108.64

