-4.88	152.28
3.05	154.11
10.99	159
17.09	162.05
21.36	159
26.25	149.84
33.26	140.99
38.76	138.24
37.84	141.3
31.13	143.13
23.8	136.41
20.75	121.77
24.11	109.86
29.91	110.78
30.82	124.82
23.5	141.6
12.21	149.54
4.58	144.96
8.24	134.58
23.8	127.26
44.56	127.87
60.12	133.67
63.17	137.63
53.71	135.5
42.11	125.73
37.84	111.39
42.42	99.79
51.27	100.71
59.51	119.02
67.14	153.5
79.04	193.79
93.69	224
100.4	229.19
90.64	207.82
70.5	172.42
59.81	143.13
72.94	137.94
103.15	160.83
126.95	201.72
127.26	243.23
111.39	270.39
103.76	276.49
117.8	265.5
144.04	249.33
159.61	245.97
150.15	273.44
123.29	336.61
96.74	420.53
79.96	500.79
68.36	562.13
50.66	603.03
21.36	628.05
-15.87	627.75
-50.96	570.37
-78.13	431.52
-95.83	227.66
-105.29	27.47
-103.76	-86.67
-84.23	-72.02
-39.37	46.39
30.82	196.84
113.22	307.31
187.07	340.58
236.51	302.43
260.93	222.17
272.22	126.34
285.64	35.71
307.92	-33.26
330.2	-68.66
335.39	-60.12
314.03	-2.75
271.61	93.08
229.8	201.42
210.27	288.39
219.73	330.81
244.14	329.59
260.01	311.28
254.21	304.57
231.32	321.96
206.91	353.7
194.09	379.64
195.31	385.13
202.33	373.54
205.08	358.89
199.89	352.48
191.96	357.06
187.99	371.09
192.26	388.49
202.94	404.05
214.54	416.26
224.61	426.33
233.76	435.18
244.14	442.81
252.38	448.61
251.77	450.74
240.78	450.13
228.58	451.66
230.71	461.12
253.6	477.29
288.39	491.94
315.25	497.13
319.52	492.86
303.65	486.15
288.39	486.15
292.36	494.08
314.64	501.1
335.39	501.71
334.78	504.76
311.28	525.51
287.17	572.2
290.22	633.54
324.4	678.41
365.91	681.15
384.83	645.75
371.7	605.47
345.76	600.28
339.05	644.53
364.07	716.86
404.97	778.2
435.18	803.83
439.45	796.2
426.33	776.67
416.26	765.99
423.28	771.48
444.34	790.1
465.7	813.9
477.91	834.66
481.87	847.78
484.31	852.05
489.81	849.3
497.44	845.03
504.15	845.03
509.95	851.14
520.94	859.99
539.86	864.87
561.83	857.24
577.7	834.35
582.58	803.83
580.75	780.03
582.58	772.4
595.09	779.11
616.15	788.57
636.29	788.57
646.36	779.11
644.53	769.35
636.29	766.91
629.27	769.35
628.97	769.35
636.29	762.02
647.28	749.51
657.96	738.53
666.81	735.47
672.61	741.58
676.88	751.95
680.24	760.19
683.29	761.11
685.42	755.62
687.87	749.51
691.22	748.9
696.41	754.7
703.43	760.19
711.36	757.14
718.08	745.85
720.83	733.34
718.38	728.15
712.28	731.51
707.4	738.53
707.7	741.27
715.03	737.61
726.01	728.45
736.08	718.38
740.97	709.84
742.49	704.96
743.71	703.74
746.77	705.57
752.26	707.4
757.45	705.57
759.89	699.16
760.8	691.22
762.63	684.51
767.21	680.54
774.54	678.71
782.47	675.35
788.27	668.34
791.63	657.96
795.29	646.67
801.39	637.51
809.94	631.41
820.01	628.97
830.99	629.58
841.06	631.41
849.3	632.63
855.1	629.88
858.76	620.73
861.82	603.94
866.39	584.11
872.8	569.15
878.91	563.96
881.65	567.93
880.13	573.12
876.16	572.51
872.8	564.88
872.8	554.81
875.55	547.49
878.3	544.43
879.21	542.3
879.52	538.64
881.96	534.97
887.15	534.67
892.33	537.72
892.64	539.86
886.54	538.02
876.77	530.7
867.92	521.24
863.34	514.22
864.26	512.7
867.31	514.83
868.53	515.75
863.95	511.17
853.27	499.27
839.84	484.31
829.16	473.33
827.03	472.11
832.52	479.43
839.23	487.98
840.45	490.42
833.74	484.31
822.75	473.33
813.29	463.26
809.02	458.68
808.11	457.76
806.58	456.85
802.31	451.36
795.9	440.37
788.88	426.03
781.86	411.99
775.15	401.61
769.65	397.64
765.38	399.48
760.19	403.75
752.87	407.41
742.49	408.33
732.12	408.94
727.84	413.51
735.47	427.86
758.06	456.24
796.51	500.79
851.14	563.35
924.99	648.8
1023.86	760.19
1151.43	886.54
1294.25	986.94
1409.3	991.21
1434.33(R)	841.67
1327.21	550.84
1101.38	213.62
830.38	-33.26
610.96	-92.77
497.74	23.19
474.55	205.99
478.21	331.42
456.24	336.3
401.61	243.84
346.68	129.09
327.45	64.09
355.22	75.68
412.6	144.65
473.02	229.8
517.88	293.88
542.6	321.66
551.15	318.6
551.45	303.65
549.93	292.36
549.32	289.92
549.32	293.27
548.4	296.94
545.35	298.77
540.77	299.07
534.36	299.99
527.04	303.04
519.41	307.62
513.92	313.42
512.39	317.99
514.83	319.21
518.19	315.86
519.1	308.53
514.83	300.6
505.98	295.72
494.69	293.88
484.31	291.75
475.46	286.56
469.06	278.02
464.48	269.17
460.51	263.98
455.02	263.37
446.17	265.5
434.57	267.64
423.28	269.47
416.26	272.83
413.51	277.71
411.38	281.68
404.97	280.76
393.07	274.05
378.42	263.37
366.52	254.21
360.41	250.85
359.8	253.3
361.02	258.18
360.11	262.15
355.53	263.98
347.6	263.98
338.44	263.37
330.81	260.93
326.84	258.18
326.84	257.57
328.37	261.23
327.15	269.17
321.66	278.32
313.11	285.34
307.01	290.83
309.14	298.77
319.21	312.19
331.12	328.98
339.36	343.32
341.8	350.65
341.8	350.34
344.24	345.15
349.12	337.52
351.87	326.23
347.6	309.45
337.83	287.78
326.84	263.67
319.52	242
315.25	224
309.45	209.66
299.38	196.23
286.25	183.11
274.66	171.51
265.81	162.05
258.18	155.33
248.41	149.84
236.51	144.04
224.3	136.72
215.76	129.09
211.49	122.38
209.66	117.8
206.91	114.44
202.03	110.47
195.92	104.68
190.12	97.35
185.24	90.33
181.58	85.14
177.31	81.18
172.12	76.9
166.63	72.33
162.05	68.66
158.69	67.14
156.25	67.75
153.2	67.75
149.54	65.61
145.26	62.26
140.99	60.73
137.63	64.39
136.11	74.46
136.72	87.28
138.55	97.96
139.47	101.62
136.72	97.35
129.39	89.11
119.32	81.48
112	79.35
110.47	83.62
114.14	90.94
118.1	97.35
118.1	99.79
112	97.66
103.15	92.47
95.52	86.67
90.64	81.48
87.89	77.82
84.53	74.77
79.65	72.33
74.16	71.11
69.27	70.19
65.92	69.58
63.78	68.66
61.95	68.05
59.81	68.66
56.76	71.72
53.1	75.68
48.83	78.43
44.25	77.51
40.28	70.8
37.23	58.9
33.57	44.25
28.38	30.82
21.97	23.5
16.17	25.63
14.04	36.32
17.7	50.66
26.25	61.04
38.15	62.26
49.74	55.54
57.37	47.61
57.37	49.13
48.83	67.44
32.96	103.15
12.82	150.15
-9.77	199.28
-35.4	247.19
-66.22	296.33
-100.71	343.93
-133.67	373.23
-156.86	351.56
-167.54	249.02
-170.29	68.97
-173.03	-137.02
-179.44	-294.8
-184.02	-350.04
-172.42	-300.29
-135.5	-191.35
-76.29	-78.74
-12.51	-0.61
34.79	27.16
55.85	4.88
60.42	-60.73
66.22	-154.42
85.75	-248.11
112	-314.33
126.65	-339.05
115.05	-325.01
77.82	-282.29
30.21	-223.39
-7.93	-159.3
-27.47	-104.06
-32.35	-68.36
-33.57	-53.1
-41.5	-48.22
-58.9	-40.28
-82.09	-24.72
-104.37	-7.02
-120.54	3.36
-130.62	4.27
-137.02	0.92
-144.04	0.31
-152.59	4.58
-161.74	9.46
-168.46	10.68
-171.51	9.16
-170.9	10.07
-169.07	16.48
-169.68	25.02
-174.56	26.25
-182.5	15.26
-191.04	-2.44
-197.45	-13.73
-200.5	-9.46
-202.03	6.1
-204.47	18.62
-209.05	15.26
-216.37	-3.36
-225.83	-25.33
-235.29	-37.84
-242.92	-36.93
-248.41	-28.99
-251.46	-25.02
-253.3	-29.6
-254.82	-36.62
-256.65	-37.23
-259.09	-28.38
-263.06	-15.26
-268.25	-8.24
-273.44	-9.46
-276.49	-10.07
-274.66	0.31
-269.78	21.06
-265.5	39.37
-265.2	43.33
-268.55	34.18
-271.91	26.55
-272.22	31.74
-269.78	47
-268.55	57.98
-270.69	57.37
-275.88	53.1
-280.15	59.2
-279.85	79.35
-275.57	100.71
-270.39	105.59
-267.64	90.03
-266.72	68.97
-264.89	59.81
-259.7	68.36
-250.85	82.09
-241.7	82.7
-236.51	62.87
-236.21	32.35
-238.34	7.32
-240.48	-3.05
-241.09	-3.97
-240.17	-7.93
-239.26	-21.97
-238.95	-41.5
-239.26	-57.07
-239.26	-64.39
-239.56	-67.44
-241.09	-74.16
-244.14	-86.98
-247.8	-102.54
-250.55	-113.22
-250.55	-115.66
-249.02	-111.39
-248.41	-104.68
-251.16	-99.79
-255.74	-97.66
-260.01	-98.27
-261.84	-100.1
-262.15	-102.23
-263.37	-104.06
-266.42	-105.59
-270.08	-108.64
-271.61	-115.97
-271.3	-126.04
-270.08	-133.97
-270.39	-134.58
-273.44	-126.95
-277.71	-116.27
-282.59	-110.47
-285.95	-112
-286.56	-116.58
-284.42	-117.19
-281.07	-112.3
-279.24	-104.06
-281.37	-97.35
-286.87	-93.38
-291.75	-90.03
-292.97	-86.98
-290.53	-87.28
-287.48	-92.47
-286.25	-99.49
-287.48	-102.54
-287.78	-97.05
-285.03	-87.28
-278.63	-79.96
-271	-78.74
-263.06	-80.57
-253.6	-79.96
-239.56	-75.68
-223.08	-65.92
-209.05	-44.86
-205.08	-3.05
-214.84	62.56
-234.99	141.6
-260.01	216.98
-287.48	273.44
-318.91	307.01
-357.67	316.16
-399.78	294.8
-433.65	229.19
-445.25	108.95
-431.21	-57.98
-401	-246.89
-369.87	-418.7
-346.98	-528.87
-326.23	-549.62
-291.44	-494.08
-231.63	-412.6
-151.98	-363.16
-74.46	-376.89
-25.02	-431.52
-19.84	-470.58
-57.07	-450.74
-119.02	-373.23
-183.11	-275.27
-233.46	-198.97
-264.28	-163.27
-281.07	-159
-292.97	-162.66
-306.4	-156.56
-321.66	-139.16
-335.39	-121.46
-344.54	-113.22
-348.82	-118.1
-350.34	-133.36
-351.56	-152.89
-352.78	-169.98
-354	-179.44
-354.61	-176.09
-355.53	-158.69
-357.36	-135.19
-359.8	-123.9
-363.16	-135.8
-366.52	-167.54
-369.87	-199.89
-372.92	-210.27
-375.37	-190.12
-376.59	-151.67
-376.89	-121.77
-377.2	-119.32
-378.11	-143.74
-379.33	-175.17
-380.55	-192.87
-381.77	-189.51
-383.61	-173.03
-386.05	-158.39
-388.79	-152.89
-392.15	-152.89
-396.12	-149.84
-399.48	-139.77
-401.92	-126.34
-401.61	-114.14
-398.86	-107.42
-395.51	-105.9
-393.68	-104.68
-393.98	-98.57
-395.51	-86.36
-396.42	-70.8
-394.9	-56.46
-390.93	-46.08
-385.13	-37.84
-379.94	-30.21
-377.2	-22.89
-378.72	-17.09
-383.61	-11.9
-386.66	-3.97
-384.52	10.07
-376.59	28.69
-366.21	45.47
-357.97	54.32
-353.7	51.27
-350.95	34.48
-346.98	7.93
-339.66	-22.89
-330.51	-47.91
-321.66	-60.42
-314.64	-60.73
-309.75	-57.68
-305.48	-60.73
-300.9	-72.33
-295.1	-88.81
-288.7	-104.06
-282.59	-115.97
-278.63	-126.04
-278.02	-135.8
-279.85	-145.87
-282.59	-154.72
-283.81	-160.83
-282.59	-163.27
-278.93	-161.44
-273.74	-154.72
-267.64	-143.13
-261.84	-128.48
-256.35	-115.66
-252.69	-109.25
-251.16	-112
-251.16	-123.29
-251.46	-137.94
-252.38	-150.76
-253.3	-157.78
-253.91	-157.47
-252.99	-151.98
-249.63	-144.35
-244.75	-138.24
-240.78	-134.28
-239.87	-131.53
-240.78	-127.26
-240.78	-120.24
-237.12	-111.08
-230.41	-102.84
-223.39	-97.05
-219.42	-94.6
-220.34	-93.69
-224	-91.25
-226.75	-85.45
-225.83	-74.16
-221.25	-59.2
-215.45	-44.86
-211.18	-36.01
-209.35	-34.48
-209.05	-37.84
-208.74	-41.2
-208.13	-40.89
-207.82	-36.32
-208.13	-29.91
-209.96	-24.41
-212.4	-21.36
-215.45	-18.31
-217.9	-13.43
-218.51	-5.8
-216.98	2.14
-213.62	7.02
-210.27	6.71
-206.6	2.75
-202.33	-0.61
-196.23	-0.61
-189.21	3.05
-183.72	7.32
-182.5	9.46
-184.94	7.32
-188.6	2.14
-189.21	-3.66
-185.24	-7.32
-177.31	-6.71
-170.29	-1.53
-167.24	4.88
-169.07	7.93
-173.03	6.41
-175.48	2.44
-173.34	-0.92
-168.46	-1.22
-162.96	0.61
-159	3.36
-157.17	7.32
-156.56	14.34
-156.25	23.8
-156.56	33.87
-156.56	42.11
-156.25	47.61
-154.42	51.88
-151.67	54.93
-149.23	55.24
-148.01	51.88
-148.62	46.39
-150.15	42.72
-151.06	45.47
-151.06	55.24
-150.45	68.05
-150.15	79.04
-150.45	84.23
-151.37	83.62
-152.28	79.65
-151.98	75.38
-150.76	72.63
-149.54	72.33
-148.62	73.85
-147.71	76.9
-145.87	80.26
-143.74	82.7
-142.52	83.01
-143.43	82.4
-146.18	83.01
-148.32	86.06
-148.93	90.94
-147.09	95.52
-144.96	97.35
-143.74	96.44
-144.04	95.21
-144.96	97.05
-147.4	104.06
-151.06	115.97
-152.89	133.36
-147.09	158.69
-124.51	196.53
-79.65	250.55
-10.38	324.4
83.01	421.45
199.28	540.16
338.13	665.59
485.23	755.92
598.75	744.63
618.59(R)	584.11
505.37	294.19
273.74	-27.16
0.31	-246.89
-216.37	-279.24
-321.35	-146.18
-331.73	39.06
-312.81	155.64
-320.74	147.71
-365.3	45.17
-415.34	-71.41
-432.43	-131.53
-399.48	-110.47
-329.9	-30.21
-252.69	65
-191.96	137.33
-158.08	170.59
-148.01	172.12
-149.23	162.05
-150.45	156.86
-147.09	160.83
-140.38	169.37
-134.58	176.09
-131.53	178.53
-131.23	177.61
-132.75	176.09
-133.06	176.39
-130.92	179.14
-126.34	183.41
-121.46	188.29
-119.32	191.35
-120.54	191.04
-123.9	188.29
-126.04	185.85
-126.34	186.77
-125.12	191.04
-124.51	198.06
-125.43	205.38
-128.48	210.27
-132.45	212.1
-136.41	211.18
-138.24	209.66
-137.94	208.44
-135.5	210.27
-132.45	215.45
-129.39	224.3
-126.95	234.38
-125.12	242.61
-123.29	246.58
-122.38	245.97
-122.38	243.53
-123.9	242.92
-125.73	246.89
-127.56	254.82
-128.78	263.98
-129.09	271.91
-128.48	277.1
-128.17	280.46
-128.17	283.51
-127.87	287.48
-126.34	293.27
-122.68	301.51
-117.8	312.19
-111.69	325.32
-105.9	340.27
-99.49	356.45
-92.16	372.62
-83.31	388.18
-73.55	404.05
-64.09	421.14
-55.85	437.93
-48.52	450.13
-41.81	450.74
-37.23	437.93
-35.4	416.87
-36.32	398.25
-38.76	388.49
-40.59	382.39
-42.42	369.57
-46.08	343.02
-54.02	308.84
-64.7	281.68
-74.16	271.3
-79.04	275.88
-78.43	283.2
-75.07	282.9
-73.24	273.74
-74.46	261.84
-77.21	253.3
-79.35	248.11
-79.96	244.45
-80.26	241.09
-82.09	241.09
-85.75	246.89
-90.33	257.57
-93.38	265.81
-94.3	262.76
-92.77	247.19
-90.03	225.22
-87.28	208.74
-85.14	208.13
-84.84	222.78
-86.06	242.61
-88.2	253.91
-90.33	250.55
-90.03	238.34
-86.98	228.58
-82.09	230.41
-77.51	241.7
-75.99	250.85
-77.82	247.19
-81.48	231.63
-83.92	216.06
-83.62	212.4
-81.48	224
-79.04	240.48
-78.74	248.72
-80.57	244.75
-83.01	235.6
-84.84	230.41
-86.06	228.88
-88.2	223.39
-91.25	212.1
-94.91	202.64
-97.66	208.13
-99.18	231.02
-99.79	256.96
-100.4	266.11
-101.01	250.24
-101.01	220.64
-101.01	197.14
-102.84	193.18
-107.12	206.91
-113.53	224.61
-119.63	233.46
-123.9	228.88
-125.43	218.2
-125.73	211.18
-126.34	212.1
-127.87	215.76
-129.39	211.79
-129.7	197.45
-128.48	180.97
-126.95	173.34
-126.34	179.14
-127.26	191.96
-127.56	201.72
-124.51	205.99
-115.66	211.49
-101.93	224.61
-85.75	243.53
-72.02	257.87
-63.78	262.45
-63.17	263.98
-70.5	275.27
-83.92	307.62
-100.1	361.63
-117.8	425.42
-140.38	484.92
-172.12	536.5
-213.32	581.97
-258.48	617.37
-295.41	627.44
-314.64	582.58
-317.69	461.12
-314.94	278.32
-314.64	88.2
-315.86	-39.98
-307.01	-61.95
-274.96	14.34
-217.9	140.38
-150.15	254.82
-93.08	308.53
-59.2	281.68
-44.56	184.63
-34.48	48.22
-17.09	-84.23
5.19	-176.09
18.31	-213.32
11.6	-207.82
-14.34	-176.7
-47.91	-130.31
-76.29	-72.63
-93.38	-7.32
-101.62	52.49
-106.81	89.42
-114.75	94.3
-127.56	78.13
-143.13	62.26
-157.17	63.48
-166.02	83.01
-169.68	106.2
-171.2	116.58
-173.95	110.17
-178.22	97.05
-182.19	89.42
-184.33	91.25
-184.33	96.44
-183.11	96.74
-181.58	92.47
-179.14	90.03
-175.48	96.44
-171.81	109.56
-169.07	120.54
-169.07	120.54
-171.81	108.64
-174.87	93.08
-175.17	85.14
-171.81	90.94
-166.63	106.2
-164.18	120.85
-166.32	125.73
-172.12	120.24
-177.31	110.17
-179.14	102.84
-176.7	101.32
-171.81	105.9
-167.54	113.83
-164.18	123.29
-162.05	130.92
-160.83	136.11
-160.22	138.85
-159.61	144.04
-158.39	155.94
-156.25	177.31
-152.89	204.47
-149.54	230.71
-146.48	249.94
-144.96	260.62
-144.04	267.33
-143.13	276.79
-141.3	292.66
-139.16	313.72
-137.63	334.78
-138.24	350.34
-140.08	357.67
-141.6	358.28
-141.6	356.45
-138.85	354.92
-134.58	354.31
-129.39	353.09
-124.51	348.82
-119.93	341.19
-115.36	330.2
-110.47	316.77
-104.98	302.43
-99.49	290.22
-95.21	282.59
-91.86	279.85
-88.5	279.24
-84.53	275.88
-79.65	267.33
-74.77	253.91
-71.41	240.17
-69.58	229.49
-68.97	223.69
-68.36	220.64
-67.44	217.9
-66.22	213.93
-65	208.74
-64.09	203.55
-63.17	200.2
-61.34	200.2
-58.59	203.86
-55.24	209.35
-52.49	215.15
-51.27	219.42
-50.35	221.25
-49.13	221.56
-46.69	221.86
-44.25	222.78
-42.42	225.22
-42.11	228.27
-42.11	229.8
-41.5	230.41
-39.98	231.02
-38.76	233.76
-37.84	239.56
-37.23	247.5
-36.01	254.52
-33.57	257.87
-30.52	256.04
-28.99	250.55
-30.21	243.23
-33.57	237.73
-37.84	235.29
-41.81	235.9
-44.56	237.12
-46.69	238.04
-47.91	238.95
-48.52	241.7
-47.91	247.19
-46.39	253.3
-44.56	255.13
-43.03	250.55
-42.42	241.09
-42.42	231.93
-43.03	227.66
-44.25	227.97
-45.17	230.1
-45.78	231.02
-46.39	230.71
-46.69	231.32
-46.39	234.07
-46.39	238.65
-46.08	242.92
-46.08	245.06
-46.39	245.67
-46.39	245.36
-45.78	245.36
-44.25	246.28
-41.81	247.8
-38.76	249.94
-36.93	252.99
-37.23	256.96
-39.37	260.62
-42.72	262.76
-44.56	263.98
-43.64	266.42
-40.89	271.61
-39.06	279.24
-39.37	287.17
-41.5	292.66
-43.95	295.41
-45.17	294.8
-45.17	292.36
-46.08	289
-48.52	287.17
-52.8	287.78
-57.37	292.05
-60.42	298.77
-62.26	305.79
-63.17	310.67
-63.48	312.19
-63.78	309.14
-63.78	303.04
-64.39	295.1
-65.61	288.09
-67.44	282.59
-69.27	279.85
-69.89	278.93
-69.58	278.93
-69.27	279.24
-69.58	279.24
-70.5	278.32
-71.11	277.1
-70.5	276.49
-68.66	276.49
-66.53	278.02
-65	279.85
-64.39	281.37
-64.39	281.68
-65	281.68
-65.31	282.9
-64.09	288.09
-61.04	296.63
-56.76	306.4
-52.49	312.81
-50.35	313.11
-50.96	308.23
-52.49	301.82
-53.1	297.85
-50.05	297.85
-44.86	300.6
-39.37	302.43
-37.23	301.82
-37.84	298.77
-39.67	295.72
-40.89	295.41
-39.98	298.16
-38.45	303.04
-37.84	307.01
-38.76	309.14
-39.37	309.45
-38.15	308.23
-35.1	306.7
-31.43	305.18
-28.08	303.96
-26.86	303.34
-26.86	302.43
-27.47	300.6
-27.77	298.16
-27.16	295.72
-25.63	293.27
-23.19	291.44
-21.06	289.31
-19.53	286.87
-19.84	285.03
-21.06	284.12
-22.89	284.42
-23.5	286.25
-22.89	289.61
-22.28	292.97
-22.58	296.02
-23.8	299.07
-25.94	303.96
-28.38	312.5
-32.96	325.62
-39.37	341.8
-42.72	360.72
-35.4	385.44
-7.32	421.45
45.47	474.55
122.68	550.23
223.39	653.99
346.98	782.17
491.03	912.17
635.38	991.21
730.29(R)	949.71
717.47	750.73
570.37	434.57
321.35	114.44
57.68	-78.74
-129.7	-80.57
-205.69	61.65
-205.08	225.52
-193.79	299.07
-214.54	247.5
-262.15	120.54
-300.9	7.63
-299.68	-24.11
-253.91	36.62
-183.41	151.06
-113.83	260.93
-63.48	322.88
-37.54	328.37
-31.43	298.77
-35.1	267.94
-39.06	258.79
-38.76	273.44
-35.4	299.38
-32.96	320.74
-32.96	329.59
-35.4	327.45
-38.15	320.13
-39.37	312.81
-37.84	308.23
-33.26	308.84
-27.77	316.16
-23.5	330.2
-23.19	345.76
-26.55	356.14
-31.43	356.14
-35.1	347.9
-36.62	337.83
-36.01	328.98
-36.01	317.99
-37.23	300.29
-38.76	279.85
-38.45	270.69
-36.32	283.81
-33.57	315.25
-32.96	344.24
-36.01	350.34
-41.5	330.81
-45.47	303.34
-46.08	290.83
-43.33	298.46
-39.98	312.5
-39.06	314.64
-42.11	300.9
-47.3	286.56
-51.27	289.31
-52.19	311.58
-49.44	337.22
-44.56	346.37
-39.37	332.64
-35.4	308.53
-32.96	293.27
-31.74	297.85
-32.35	317.08
-34.48	338.44
-38.15	352.17
-41.2	357.97
-42.42	361.63
-39.67	367.74
-32.04	375.98
-19.84	383
-5.49	388.49
7.63	393.68
16.78	401
20.45	409.55
20.14	414.43
18.92	409.24
18.92	391.24
21.06	363.16
24.41	333.86
26.86	312.81
25.94	302.73
21.06	297.24
13.73	286.87
6.71	266.72
2.44	241.09
1.22	222.47
0.61	215.76
-1.53	216.06
-5.49	213.01
-11.29	203.25
-16.78	191.65
-20.14	188.29
-21.06	197.45
-19.84	212.4
-17.7	220.03
-15.26	211.49
-11.6	190.12
-7.02	169.07
-3.36	159.91
-2.75	163.88
-6.41	171.51
-12.51	173.65
-17.4	170.9
-18.62	170.9
-17.4	177.61
-15.56	182.19
-15.26	175.17
-16.48	159
-18.31	148.32
-19.23	155.33
-18.31	175.48
-14.95	190.73
-10.07	186.46
-5.49	165.1
-3.05	144.35
-4.27	138.24
-7.63	148.01
-11.9	165.1
-15.26	179.44
-17.7	184.94
-18.92	183.11
-19.53	176.09
-20.45	166.32
-21.97	154.42
-24.11	145.26
-27.16	143.74
-30.52	151.98
-34.18	165.41
-37.54	174.56
-40.28	171.81
-41.2	159.91
-39.98	146.79
-38.45	137.63
-38.15	132.14
-40.59	126.95
-45.17	123.9
-48.83	127.26
-50.35	135.8
-48.52	141.91
-45.47	137.94
-43.95	124.51
-45.78	112.3
-50.35	110.47
-56.76	119.32
-62.56	131.23
-65.92	139.47
-63.17	147.4
-49.74	164.79
-20.75	202.64
28.38	265.81
100.4	353.7
197.45	465.39
319.82	594.18
459.59	714.11
588.99	768.74
657.04(R)	690.92
614.01	457.76
448.3	127.56
205.08	-174.87
-28.99	-325.32
-179.14	-281.68
-230.41	-110.47
-226.75	64.39
-228.27	145.87
-262.45	110.17
-313.42	3.97
-346.37	-98.27
-337.22	-137.33
-288.39	-96.74
-220.64	0.92
-155.94	110.78
-107.42	191.96
-78.13	226.14
-64.7	222.17
-59.51	204.77
-57.07	193.79
-54.63	195.62
-52.49	205.08
-50.35	215.45
-47	222.47
-41.5	226.44
-35.1	227.05
-29.6	225.22
-26.55	220.95
-25.63	215.15
-25.94	211.49
-25.33	214.54
-23.19	225.22
-20.75	240.17
-18.62	252.38
-17.7	257.26
-17.4	253.3
-17.09	244.75
-15.56	237.12
-13.12	234.07
-10.68	236.82
-8.24	244.45
-5.49	254.21
-1.83	263.98
2.75	271.3
7.02	277.1
9.77	282.29
10.68	287.17
10.07	290.53
8.85	291.44
8.54	290.22
9.46	289
11.6	290.22
14.04	295.41
15.56	302.73
15.87	309.75
15.26	316.16
14.95	323.49
16.48	333.86
20.14	347.9
26.25	363.16
33.26	376.28
40.89	387.27
48.83	397.34
56.76	408.94
64.7	421.45
72.02	431.52
78.74	436.4
85.45	435.79
92.16	432.43
98.57	428.77
103.45	425.42
105.9	419.92
105.59	409.85
102.84	393.37
98.88	372.01
94.3	349.12
88.81	329.28
83.62	314.33
78.74	303.96
74.77	296.63
70.8	289.61
66.83	282.29
62.87	273.74
58.59	263.67
55.24	252.99
52.19	243.53
49.74	237.73
47.61	236.51
45.17	237.73
42.42	238.34
39.67	234.68
37.23	226.75
36.01	215.76
35.71	206.3
35.71	201.72
35.1	204.47
33.87	213.01
32.65	224.3
31.74	233.76
31.13	239.87
30.21	243.84
29.6	247.5
30.52	251.46
32.96	255.74
36.32	258.48
38.45	258.48
36.93	255.74
32.35	250.85
27.47	245.97
25.02	242.92
24.72	242.92
25.33	246.28
25.02	251.16
22.58	256.65
17.7	262.45
10.38	269.78
3.05	281.68
0	303.34
10.38	339.66
44.56	393.98
110.17	465.39
210.57	553.28
342.71	652.47
499.88	747.38
662.84	800.17
789.79	756.84
821.84(R)	582.28
717.47	299.99
486.45	1.53
201.42	-195.92
-37.23	-220.03
-165.71	-95.21
-194.4	78.13
-186.77	193.79
-201.42	203.86
-249.02	134.58
-296.94	52.8
-305.48	16.48
-260.93	42.72
-182.8	110.47
-102.84	184.02
-44.86	234.99
-14.34	254.21
-4.88	249.02
-4.27	236.21
-3.36	227.66
1.22	226.75
7.63	229.49
12.51	230.41
15.26	228.58
16.48	225.52
18.01	224
19.84	225.52
21.67	228.58
22.28	230.1
21.67	229.8
19.84	228.88
17.09	229.8
14.04	233.46
11.6	238.34
10.38	242
10.99	243.23
13.43	242.92
17.4	244.14
21.36	249.33
23.8	258.79
24.72	270.39
23.8	279.54
21.97	284.12
19.84	284.42
18.31	284.42
18.31	287.17
18.92	294.19
20.14	303.65
20.45	313.11
19.84	321.96
18.92	333.56
17.7	350.34
15.87	372.01
14.34	391.85
12.82	401.61
12.51	396.73
14.34	383.61
17.4	375.98
20.75	382.69
23.8	401.61
27.16	419.62
30.52	425.42
35.4	417.18
43.03	405.88
52.8	404.97
64.39	418.09
75.38	434.57
82.4	438.84
85.75	421.45
86.67	387.88
87.89	353.39
89.42	330.81
89.11	321.96
84.23	317.69
75.99	309.75
66.83	295.72
61.04	278.63
59.51	262.45
58.9	246.28
55.54	229.8
48.83	216.06
39.37	209.66
30.21	211.18
24.72	214.84
23.19	212.1
24.72	198.97
26.86	179.14
28.08	160.83
28.08	151.06
26.86	148.93
25.33	148.62
22.58	144.65
19.84	135.19
18.01	124.21
18.01	116.88
19.23	115.66
20.45	119.02
20.45	123.6
20.14	124.51
21.06	120.24
24.41	112.92
28.38	106.2
32.04	102.54
34.48	100.71
36.01	97.35
38.15	90.94
39.67	83.01
39.98	77.51
37.54	73.85
32.65	68.05
27.77	59.2
26.25	52.8
29.3	54.93
35.1	61.65
39.67	62.56
39.98	51.88
35.4	33.87
28.69	21.67
24.11	24.72
23.8	38.76
26.25	50.96
29.91	55.54
32.35	60.12
33.26	68.66
31.74	75.68
29.6	69.58
28.08	45.47
28.38	13.73
29.91	-4.58
31.13	-0.92
29.6	14.04
27.16	24.41
27.77	24.72
35.4	22.58
50.66	29.3
68.97	48.83
82.09	74.46
84.84	98.27
76.9	117.8
62.26	133.06
45.47	148.62
28.38	173.95
6.71	219.42
-25.02	293.88
-66.22	388.79
-109.25	474.85
-142.21	510.56
-157.78	459.59
-159.3	311.28
-159.3	98.27
-166.63	-110.47
-177.92	-242.92
-177.31	-260.62
-150.45	-180.36
-94.91	-61.65
-26.25	30.52
34.18	58.29
72.94	18.92
92.77	-68.66
108.64	-178.22
130.92	-283.81
156.86	-363.46
174.26	-404.05
172.12	-404.97
149.84	-375.37
119.32	-325.62
93.99	-265.81
80.57	-208.74
75.07	-163.27
70.19	-132.14
59.51	-111.39
42.11	-94.6
24.11	-84.23
9.77	-92.77
1.83	-123.29
-1.53	-162.35
-5.19	-187.68
-10.99	-183.72
-18.01	-151.98
-24.41	-113.53
-28.08	-93.99
-28.08	-102.23
-25.02	-127.26
-21.36	-151.67
-18.92	-160.22
-19.53	-155.03
-23.8	-150.76
-30.52	-160.52
-36.62	-182.5
-40.59	-202.33
-43.03	-207.52
-44.86	-198.97
-46.69	-185.24
-48.22	-178.22
-49.74	-185.55
-51.88	-209.05
-55.24	-241.7
-59.81	-270.69
-63.48	-281.37
-64.09	-267.03
-62.26	-237.12
-59.81	-213.01
-57.37	-211.49
-54.63	-229.19
-49.74	-245.36
-42.72	-238.95
-35.4	-205.99
-30.21	-161.74
-27.77	-126.95
-27.47	-115.05
-26.86	-123.6
-25.33	-138.24
-22.89	-148.62
-20.45	-148.62
-19.23	-136.41
-19.23	-114.75
-20.45	-93.69
-23.19	-84.53
-27.16	-90.94
-30.82	-106.51
-33.26	-118.1
-32.96	-115.05
-30.52	-101.01
-27.47	-90.33
-24.72	-95.52
-22.58	-115.97
-18.62	-140.69
-11.9	-158.39
-3.66	-166.63
0.92	-172.42
-0.61	-187.68
-6.71	-216.67
-12.51	-251.46
-13.73	-283.51
-10.99	-308.84
-8.24	-328.06
-8.24	-344.85
-10.38	-357.36
-11.29	-361.33
-10.68	-363.16
-10.07	-375.98
-11.6	-402.53
-13.43	-429.38
-12.21	-440.37
-6.1	-430.6
2.44	-411.68
8.85	-401.92
10.68	-408.33
8.85	-418.4
6.71	-420.84
6.41	-417.79
7.63	-419.31
8.54	-429.69
8.24	-441.59
7.32	-444.34
7.02	-432.43
7.02	-413.51
7.32	-404.36
7.02	-410.46
5.19	-422.97
1.53	-429.08
-3.05	-423.58
-6.71	-415.04
-8.85	-412.29
-9.46	-414.43
-9.16	-413.21
-10.07	-404.36
-12.51	-395.51
-15.87	-401.61
-18.62	-423.58
-19.53	-441.89
-18.62	-435.49
-16.48	-403.44
-13.73	-369.87
-12.82	-363.77
-15.26	-392.15
-19.53	-432.43
-23.5	-449.52
-24.11	-429.08
-19.84	-386.35
-11.9	-353.09
-1.83	-350.04
8.24	-373.84
17.7	-401.61
26.86	-415.34
37.84	-413.51
49.44	-398.56
58.9	-370.48
61.04	-326.54
53.1	-265.81
35.4	-195.31
13.43	-126.34
-9.77	-65.92
-34.79	-11.29
-63.48	38.45
-95.83	67.14
-126.95	46.39
-148.62	-44.86
-155.33	-211.79
-149.54	-442.81
	
