-35.71	-6.1
-34.79	-5.19
-33.87	-4.88
-33.26	-6.71
-33.26	-10.68
-33.87	-15.26
-33.87	-18.01
-32.96	-17.4
-32.65	-14.95
-33.26	-12.51
-34.48	-12.21
-34.79	-14.34
-32.65	-15.87
-28.38	-13.43
-24.11	-5.8
-21.67	8.24
-21.67	26.86
-21.67	47
-19.53	65.31
-14.65	78.74
-7.02	85.75
1.53	89.11
10.38	93.38
18.92	102.84
28.08	119.63
37.23	141.6
46.69	164.79
55.85	184.63
63.78	198.97
69.89	208.44
74.46	215.76
78.74	223.08
84.53	230.1
93.08	235.29
101.32	236.21
106.2	232.54
104.68	225.22
96.13	213.01
80.57	193.48
57.98	162.05
28.38	119.02
-4.58	69.89
-32.96	22.89
-49.74	-14.34
-53.1	-40.28
-48.22	-56.15
-42.72	-64.7
-42.11	-67.75
-45.78	-68.05
-50.66	-68.05
-53.71	-69.89
-54.02	-74.46
-52.8	-79.96
-51.57	-84.23
-50.96	-84.53
-51.27	-81.48
-52.19	-77.51
-53.1	-75.07
-53.41	-76.29
-53.1	-79.96
-51.88	-82.7
-50.05	-81.48
-48.52	-76.29
-47.91	-70.19
-48.52	-66.22
-49.13	-66.53
-49.13	-69.27
-47.3	-70.5
-42.72	-65.92
-36.32	-50.96
-28.99	-24.41
-19.23	10.38
-0.31	48.83
36.01	91.55
96.44	148.01
184.63	240.48
301.21	393.98
449.22	614.01
632.02	874.63
847.47	1126.71
1079.71	1316.83
1291.81	1409.30(R)
1436.16	1388.86
1467.9	1252.14
1360.17	1001.59
1124.27	649.41
816.04	244.14
511.47	-125.73
273.44	-367.43
124.82	-433.04
43.03	-351.56
-12.51	-214.84
-64.39	-119.93
-109.25	-108.34
-134.89	-154.42
-138.24	-202.64
-130.92	-216.67
-126.34	-198.97
-129.39	-174.56
-135.8	-165.1
-138.85	-173.03
-137.94	-186.16
-135.19	-192.87
-133.67	-189.21
-133.36	-179.44
-133.36	-169.07
-133.06	-162.66
-132.45	-162.35
-132.45	-166.32
-133.67	-170.9
-135.8	-173.65
-137.33	-173.95
-137.02	-173.65
-135.19	-173.34
-133.67	-173.34
-133.67	-172.42
-135.19	-169.68
-136.72	-165.71
-136.11	-161.13
-133.67	-157.17
-130.62	-154.42
-129.09	-151.98
-130.31	-149.54
-133.36	-147.09
-136.41	-145.87
-138.24	-146.79
-139.16	-150.15
-139.47	-155.03
-140.69	-159
-142.82	-160.52
-145.57	-158.39
-148.01	-154.11
-150.15	-149.84
-152.28	-147.4
-155.94	-147.4
-161.13	-149.84
-166.93	-151.98
-171.51	-152.28
-173.95	-149.84
-175.17	-145.57
-176.09	-141.91
-177.61	-140.38
-180.05	-140.99
-183.11	-140.99
-185.24	-138.55
-186.16	-133.06
-185.24	-126.95
-181.88	-122.38
-176.7	-119.63
-169.37	-116.27
-159.91	-109.86
-148.01	-98.88
-134.58	-85.14
-119.93	-71.11
-104.68	-58.59
-89.42	-49.44
-74.46	-42.11
-60.42	-36.01
-48.22	-29.3
-38.45	-20.75
-30.52	-10.68
-24.11	-1.22
-18.92	5.49
-14.04	7.63
-10.07	5.8
-7.02	3.05
-5.8	1.53
-6.1	3.66
-7.02	8.24
-7.63	12.82
-7.63	15.56
-7.02	14.95
-6.71	11.6
-6.71	7.02
-6.71	2.44
-7.02	-1.53
-7.32	-5.8
-8.24	-10.99
-10.07	-16.78
-12.82	-21.36
-15.26	-22.89
-16.48	-22.28
-16.17	-21.36
-14.95	-22.58
-13.73	-27.16
-14.34	-32.04
-17.09	-35.1
-20.75	-34.79
-23.8	-33.26
-24.11	-32.04
-21.06	-32.04
-16.17	-32.65
-11.9	-31.74
-9.46	-28.99
-9.46	-25.33
-11.29	-22.28
-13.12	-21.06
-13.12	-21.67
-11.9	-23.5
-9.77	-24.72
-7.93	-24.72
-7.32	-22.58
-7.63	-19.23
-8.24	-15.56
-8.85	-13.12
-9.46	-12.82
-9.77	-13.12
-9.77	-12.21
-9.16	-7.02
-7.02	3.97
-3.97	19.53
0	37.23
4.88	53.41
10.68	64.7
16.78	70.5
23.19	72.63
29.91	76.6
36.93	87.89
45.47	110.17
56.15	140.99
68.05	173.34
78.74	198.36
85.14	209.96
86.06	209.05
83.92	202.94
83.62	198.97
88.5	200.81
97.66	206.3
106.2	211.18
108.34	210.57
102.54	202.64
89.11	184.63
68.97	155.64
43.33	115.66
14.65	68.36
-12.21	21.67
-30.52	-18.31
-36.93	-47.61
-34.48	-68.05
-30.82	-82.4
-30.82	-93.08
-34.48	-100.4
-38.15	-103.76
-39.06	-103.76
-37.54	-102.84
-35.71	-102.54
-35.1	-102.84
-36.01	-102.54
-36.62	-101.01
-36.93	-98.88
-36.93	-97.66
-37.54	-99.49
-39.67	-103.76
-42.42	-107.42
-43.64	-107.73
-43.33	-103.15
-41.2	-96.74
-39.37	-91.55
-38.45	-90.03
-37.84	-91.25
-35.71	-91.86
-31.13	-88.81
-24.72	-79.65
-18.31	-61.95
-11.9	-35.71
0.31	-2.75
27.47	36.32
77.82	85.45
153.81	159.3
253.3	285.03
375.67	483.7
525.21	747.68
705.26	1036.68
909.73	1289.67
1111.76	1450.5
1268.92	1489.26(R)
1338.2	1399.54
1288.45	1188.66
1116.64	870.67
859.38	479.13
578.31	83.01
334.78	-229.19
164.49	-390.01
64.09	-391.85
2.75	-292.97
-45.47	-184.33
-86.36	-133.06
-111.69	-147.71
-117.8	-192.57
-112	-226.75
-106.2	-232.85
-107.12	-219.73
-112.3	-205.08
-116.27	-200.81
-116.58	-205.99
-115.36	-215.15
-115.05	-222.78
-115.97	-227.05
-117.19	-227.36
-117.8	-224.3
-118.1	-219.73
-118.41	-215.45
-118.1	-212.1
-118.1	-209.96
-117.8	-208.74
-117.49	-208.13
-116.88	-206.91
-116.27	-204.77
-114.75	-201.11
-113.22	-196.84
-112.61	-193.48
-113.53	-192.26
-115.97	-194.09
-119.02	-197.75
-121.15	-200.81
-121.77	-200.81
-121.77	-198.36
-121.15	-195.62
-120.24	-194.7
-119.63	-196.23
-119.63	-198.06
-121.15	-198.06
-123.6	-196.84
-126.65	-195.31
-130.31	-195.92
-134.28	-198.06
-138.55	-199.89
-142.21	-199.89
-144.35	-197.14
-145.26	-193.48
-146.18	-191.04
-148.62	-190.73
-152.89	-192.57
-158.39	-195.62
-163.27	-198.97
-166.93	-201.42
-169.98	-202.64
-171.81	-202.03
-172.42	-198.67
-170.9	-193.79
-167.24	-188.9
-162.66	-185.55
-157.78	-182.5
-151.98	-177.61
-144.35	-167.85
-133.36	-152.89
-119.02	-134.58
-103.15	-117.49
-88.2	-103.76
-75.68	-91.86
-65.31	-80.26
-55.24	-66.83
-44.56	-53.41
-33.87	-42.72
-24.72	-38.76
-18.31	-40.28
-14.04	-43.03
-10.68	-41.5
-8.54	-34.48
-8.24	-25.02
-10.99	-20.14
-15.56	-22.28
-19.53	-30.21
-19.84	-37.54
-17.4	-40.28
-14.34	-38.15
-12.82	-34.18
-14.04	-32.04
-16.78	-32.65
-18.92	-35.4
-19.84	-39.37
-19.53	-43.03
-18.31	-45.78
-17.09	-46.39
-16.17	-44.56
-15.56	-41.81
-14.95	-39.37
-14.04	-38.45
-13.43	-39.06
-13.12	-41.2
-12.51	-43.64
-10.99	-46.69
-9.16	-50.05
-7.93	-54.02
-7.93	-57.68
-8.85	-58.9
-9.77	-55.24
-9.77	-46.69
-8.85	-36.01
-8.24	-28.08
-7.93	-26.25
-7.02	-29.3
-4.58	-35.1
-2.14	-40.28
-1.22	-43.33
-2.75	-43.64
-5.8	-41.81
-8.54	-39.06
-8.85	-36.32
-7.32	-35.1
-5.19	-35.1
-3.66	-33.87
-1.83	-28.08
0.92	-15.56
5.49	4.27
10.38	27.77
14.04	48.22
14.95	60.12
14.95	62.56
16.78	61.04
23.5	65.31
35.4	80.87
49.44	107.42
61.04	137.94
68.66	164.49
72.63	182.5
74.77	193.18
77.51	198.97
80.57	202.03
83.92	202.03
87.28	198.67
89.72	193.79
90.94	188.9
89.42	184.63
83.92	177
72.02	158.69
51.57	125.12
24.11	78.13
-5.19	26.25
-27.47	-19.84
-37.23	-54.32
-35.71	-76.9
-30.21	-91.86
-28.38	-102.54
-33.26	-110.78
-41.5	-116.88
-47	-120.85
-47.3	-123.29
-43.33	-124.21
-39.37	-123.6
-38.15	-122.68
-41.2	-123.29
-46.39	-126.65
-50.96	-131.53
-53.1	-135.5
-52.49	-136.11
-50.05	-133.67
-47.61	-130.31
-46.08	-127.56
-45.47	-126.04
-45.17	-124.51
-45.17	-121.77
-43.95	-117.49
-40.28	-111.39
-33.87	-103.76
-25.94	-93.38
-20.75	-78.13
-20.14	-56.76
-19.84	-29.3
-10.07	5.49
21.97	54.93
84.23	134.28
177	267.94
298.46	474.24
446.47	744.02
620.42	1038.51
814.82	1300.66
1009.83	1477.05
1171.88	1534.73(R)
1261.6	1460.88
1245.42	1256.71
1112.37	938.11
885.62	539.25
620.12	129.7
376.89	-201.72
197.14	-388.79
86.36	-419.31
18.31	-342.71
-34.48	-243.53
-80.26	-190.43
-113.22	-199.58
-126.34	-239.87
-123.9	-270.08
-118.41	-271.3
-118.41	-252.99
-124.21	-236.51
-130.31	-234.68
-132.75	-245.36
-132.14	-256.04
-130.92	-259.7
-129.7	-256.65
-129.39	-251.16
-129.39	-246.89
-130	-244.45
-129.39	-241.39
-127.87	-235.29
-125.43	-227.36
-124.21	-221.56
-124.82	-222.17
-126.95	-229.19
-129.09	-238.65
-129.7	-244.45
-129.39	-244.45
-129.7	-239.26
-130.62	-232.24
-131.23	-226.14
-130.31	-221.86
-128.17	-220.34
-126.34	-221.25
-126.65	-223.69
-128.48	-225.22
-130.92	-224
-133.06	-220.34
-134.89	-215.45
-136.72	-211.79
-139.47	-209.96
-142.21	-209.96
-144.35	-210.88
-145.87	-212.71
-148.01	-216.06
-150.45	-219.42
-153.5	-220.64
-157.47	-218.2
-162.35	-214.23
-167.54	-211.18
-172.42	-211.18
-175.17	-211.79
-175.17	-211.49
-174.56	-209.96
-174.87	-209.66
-177.31	-213.01
-180.05	-217.59
-181.27	-219.12
-179.14	-213.32
-173.95	-200.81
-166.02	-185.55
-156.86	-171.51
-147.09	-160.22
-137.63	-149.23
-128.78	-137.94
-119.32	-126.95
-107.42	-118.1
-92.16	-111.69
-74.77	-105.59
-57.37	-97.05
-43.33	-84.23
-34.48	-69.89
-30.21	-57.07
-28.38	-48.52
-27.77	-44.56
-27.16	-43.64
-26.55	-43.64
-25.33	-43.03
-23.5	-41.81
-21.36	-39.06
-18.92	-35.71
-17.09	-33.87
-16.48	-34.18
-16.78	-37.23
-17.7	-41.2
-18.62	-44.25
-19.23	-44.25
-18.92	-41.81
-18.62	-38.15
-18.31	-35.71
-19.53	-35.71
-21.67	-38.15
-23.8	-41.5
-25.02	-43.33
-25.33	-43.33
-24.72	-43.03
-25.02	-43.95
-26.25	-47.61
-28.99	-52.49
-32.35	-56.46
-34.79	-57.07
-35.1	-54.63
-32.96	-50.96
-29.3	-47.61
-26.55	-46.39
-25.94	-46.39
-26.86	-46.39
-28.38	-45.78
-28.38	-44.25
-26.55	-42.42
-23.8	-40.59
-21.36	-38.76
-19.53	-36.93
-19.53	-35.4
-21.06	-35.1
-23.8	-36.93
-26.86	-39.67
-28.69	-40.89
-28.38	-36.93
-24.41	-25.33
-18.01	-7.63
-11.29	13.43
-5.8	33.57
-3.66	48.83
-3.97	58.59
-4.58	64.7
-3.36	69.89
2.14	78.43
12.21	93.69
25.33	115.36
38.76	140.69
49.44	165.1
55.54	183.11
56.76	193.79
55.54	198.36
55.24	199.58
58.59	199.58
65.92	199.89
74.46	200.5
79.65	202.33
79.65	203.25
73.55	198.67
61.04	181.58
41.2	146.79
13.43	96.13
-18.31	39.67
-45.47	-10.68
-60.12	-48.22
-60.12	-72.33
-52.49	-86.98
-45.78	-95.83
-45.47	-101.01
-50.05	-102.84
-54.63	-103.15
-56.15	-103.45
-55.54	-105.29
-55.54	-108.34
-57.98	-112.3
-61.65	-115.66
-64.7	-117.49
-65	-117.19
-63.48	-114.75
-61.65	-110.47
-61.34	-106.2
-62.26	-102.54
-62.87	-100.4
-62.56	-99.18
-60.73	-98.57
-59.2	-98.27
-59.2	-99.49
-59.81	-101.01
-58.9	-101.32
-55.54	-95.83
-50.66	-79.96
-46.69	-50.96
-43.03	-10.68
-32.96	39.37
-6.1	102.23
49.13	191.04
138.24	329.28
263.06	535.89
420.23	803.22
604.25	1094.67
805.66	1354.37
1004.33	1528.02
1167.6	1581.12(R)
1257.32	1499.94
1241.46	1287.23
1108.4	960.39
881.96	553.89
616.76	137.02
372.62	-200.5
190.73	-388.18
76.6	-410.77
5.19	-318.3
-49.44	-202.03
-96.13	-139.77
-128.48	-150.76
-140.69	-200.5
-137.33	-239.87
-130	-245.06
-128.48	-225.52
-133.67	-205.99
-140.38	-202.94
-143.13	-212.1
-142.52	-220.95
-140.08	-220.95
-138.24	-213.62
-138.24	-205.08
-139.77	-200.2
-141.91	-198.97
-143.43	-199.28
-143.43	-198.67
-142.21	-196.23
-140.69	-192.87
-139.77	-191.04
-139.77	-191.04
-140.69	-191.65
-141.91	-190.73
-143.13	-187.68
-143.74	-183.11
-143.43	-178.53
-142.82	-174.56
-142.21	-172.42
-143.13	-172.42
-145.26	-175.17
-148.01	-179.75
-150.15	-184.33
-151.06	-186.16
-151.06	-184.33
-151.37	-179.75
-152.28	-174.26
-153.5	-170.59
-155.03	-169.68
-156.25	-171.2
-157.78	-173.95
-160.22	-175.78
-163.27	-175.48
-166.63	-172.73
-169.37	-168.76
-171.81	-165.71
-174.87	-164.49
-178.53	-165.1
-182.19	-166.63
-185.24	-168.46
-187.68	-169.68
-189.51	-169.98
-191.04	-169.68
-192.57	-168.76
-192.87	-166.63
-191.04	-162.35
-185.85	-155.64
-177.92	-145.57
-167.85	-133.36
-157.78	-120.24
-147.71	-107.12
-137.02	-93.69
-125.43	-79.65
-112.3	-64.39
-98.57	-48.52
-85.14	-34.18
-73.24	-22.58
-62.56	-14.04
-53.41	-7.93
-45.78	-2.14
-40.59	4.27
-38.15	11.29
-37.54	18.62
-37.23	24.72
-35.4	28.99
-31.43	31.43
-27.77	33.26
-26.25	34.48
-27.16	35.4
-29.6	35.1
-31.74	33.57
-32.96	31.13
-33.87	28.99
-34.48	27.16
-35.1	26.25
-34.48	25.02
-32.35	22.89
-30.21	20.14
-29.3	16.78
-29.91	13.73
-31.74	10.99
-33.57	8.24
-34.79	4.88
-35.71	1.83
-36.93	0
-38.15	0.31
-39.06	2.44
-38.45	6.1
-37.23	9.16
-36.32	9.77
-36.62	7.93
-38.15	4.58
-40.28	1.22
-41.2	-0.92
-40.89	-1.53
-39.67	-2.14
-38.76	-3.36
-38.45	-5.19
-38.76	-6.71
-39.06	-7.63
-39.37	-8.54
-39.37	-8.85
-39.06	-9.16
-38.76	-7.93
-38.76	-4.88
-38.15	0.92
-36.32	10.07
-32.96	23.19
-28.38	39.98
-23.19	58.9
-18.62	76.6
-15.87	90.03
-14.95	96.44
-14.95	97.66
-13.43	97.96
-8.54	103.45
0.31	117.8
11.9	141.3
24.41	169.98
35.1	196.53
42.42	216.06
46.39	225.52
48.22	226.75
50.05	224.91
54.02	223.08
60.73	223.69
67.75	226.75
71.72	230.71
70.8	232.54
64.39	227.36
51.57	209.66
31.43	176.39
3.97	128.48
-26.86	74.46
-53.41	24.72
-68.05	-13.43
-69.58	-37.54
-64.39	-51.88
-59.81	-60.73
-59.2	-66.53
-61.65	-69.58
-63.78	-70.19
-63.78	-69.58
-63.17	-69.58
-63.78	-71.41
-65.61	-74.46
-68.36	-77.82
-69.89	-81.18
-69.89	-83.31
-69.58	-83.62
-69.58	-82.4
-70.8	-79.96
-72.02	-77.51
-71.72	-75.68
-70.19	-75.68
-67.75	-76.9
-66.22	-77.82
-65.92	-77.82
-65.92	-75.38
-64.7	-71.11
-61.04	-62.56
-56.76	-46.69
-53.41	-21.06
-49.74	12.82
-39.98	54.93
-14.65	109.25
34.48	189.82
113.83	319.52
225.52	517.58
371.7	778.2
551.76	1065.67
758.36	1327.21
970.46	1508.79
1151.12	1574.71(R)
1258.54	1507.57
1257.32	1306.76
1133.73	985.72
910.95	578.31
643.92	153.81
394.29	-194.7
204.77	-392.15
82.7	-417.48
5.49	-319.52
-53.71	-192.57
-103.15	-119.93
-137.33	-125.43
-150.45	-174.56
-146.48	-216.98
-138.55	-224.3
-136.41	-204.47
-140.99	-181.58
-147.71	-173.34
-151.37	-179.14
-151.06	-187.07
-148.93	-189.51
-147.09	-187.38
-146.79	-184.33
-148.01	-182.5
-149.54	-181.58
-150.45	-180.66
-150.45	-179.14
-150.15	-177.92
-150.15	-177.61
-150.45	-178.53
-150.45	-179.14
-149.84	-178.83
-148.62	-176.7
-148.01	-174.26
-148.01	-171.81
-148.32	-169.37
-149.23	-167.24
-149.54	-165.1
-149.84	-164.18
-149.84	-165.1
-148.93	-167.54
-148.62	-169.37
-148.93	-169.07
-150.76	-166.32
-153.2	-162.35
-155.94	-159
-157.78	-157.47
-158.69	-157.78
-159.3	-158.39
-160.22	-158.39
-162.66	-157.47
-166.93	-155.94
-172.12	-154.42
-177.31	-153.81
-181.27	-153.2
-183.11	-153.2
-183.72	-152.89
-184.02	-153.2
-185.85	-154.11
-189.21	-155.64
-193.18	-156.25
-195.92	-155.03
-196.53	-151.67
-195.31	-146.79
-192.57	-140.69
-188.29	-133.67
-182.19	-125.12
-173.95	-114.44
-163.27	-101.93
-150.76	-87.89
-137.63	-73.55
-125.43	-60.12
-113.22	-48.22
-101.01	-36.62
-88.81	-25.63
-76.6	-14.65
-65.61	-4.58
-57.07	3.66
-50.66	9.77
-45.17	14.65
-40.59	18.62
-36.62	22.58
-33.57	25.63
-31.74	28.08
-30.82	29.3
-30.21	30.52
-29.91	32.35
-29.3	35.1
-28.99	37.23
-28.99	38.15
-29.6	36.62
-30.82	32.04
-32.35	25.02
-33.57	17.4
-34.18	11.29
-34.48	7.32
-34.18	6.1
-34.48	6.41
-34.79	6.41
-35.4	4.88
-36.32	1.83
-36.93	-1.22
-37.54	-4.27
-37.84	-6.1
-37.54	-6.71
-37.23	-6.41
-37.54	-5.49
-38.76	-4.27
-40.89	-3.36
-42.72	-3.36
-44.25	-3.97
-44.56	-5.8
-44.25	-8.85
-44.25	-12.21
-43.95	-14.65
-43.64	-15.26
-42.11	-13.12
-39.98	-9.16
-38.15	-5.19
-36.93	-2.44
-36.32	-1.22
-35.71	0
-34.18	2.75
-31.74	7.93
-28.69	15.87
-25.94	27.16
-22.89	42.11
-18.62	60.42
-13.73	79.04
-9.77	92.77
-8.54	97.96
-9.16	95.83
-7.93	93.38
-2.14	98.57
9.16	115.97
23.19	143.43
36.32	174.56
46.69	201.42
53.1	219.42
55.85	226.75
57.07	225.83
58.59	222.17
63.17	220.34
71.11	222.78
79.96	228.27
85.75	233.76
86.36	234.38
80.87	225.52
67.75	203.25
46.08	166.63
16.17	119.63
-17.7	70.5
-46.08	28.08
-61.95	-3.36
-64.09	-24.72
-59.2	-40.28
-54.93	-52.19
-55.24	-60.73
-58.59	-64.7
-61.95	-65.31
-63.48	-64.7
-62.87	-65.92
-61.95	-68.97
-61.95	-72.33
-62.87	-75.07
-64.7	-75.99
-66.53	-75.07
-66.83	-72.02
-65.31	-68.36
-62.87	-64.7
-60.42	-62.56
-58.9	-62.26
-58.9	-63.48
-59.51	-65
-60.12	-66.22
-59.51	-66.53
-56.15	-64.7
-50.66	-60.12
-44.86	-50.35
-40.28	-32.65
-39.06	-5.8
-37.54	27.47
-28.08	65
0.31	109.86
56.46	175.17
144.65	285.34
267.33	462.95
424.8	705.57
617.07	979.61
837.4	1232.3
1065.37	1411.44
1264.04	1483.76(R)
1387.94	1434.63
1397.4	1262.21
1271.97	973.82
1031.19	592.96
733.64	180.05
451.05	-172.12
236.82	-379.94
104.37	-413.82
27.16	-316.47
-29.91	-182.5
-82.09	-100.71
-123.6	-100.1
-144.04	-149.84
-144.35	-196.23
-136.11	-209.05
-131.53	-192.57
-134.89	-171.81
-142.52	-165.1
-148.62	-171.81
-151.37	-180.97
-150.15	-184.02
-147.09	-181.58
-144.65	-177.92
-144.96	-176.09
-147.71	-176.7
-150.45	-177.92
-151.06	-177.92
-148.32	-175.78
-144.96	-171.81
-142.52	-166.93
-141.6	-162.05
-142.21	-158.08
-142.82	-156.56
-143.43	-157.78
-143.13	-160.22
-142.21	-162.05
-140.99	-161.13
-139.77	-157.47
-139.16	-153.5
-140.38	-151.06
-142.52	-151.06
-144.96	-152.89
-146.79	-154.11
-148.01	-154.11
-148.93	-152.89
-149.84	-151.06
-150.45	-148.32
-150.45	-144.04
-149.84	-137.94
-150.15	-131.84
-151.98	-128.17
-156.25	-128.78
-162.35	-133.36
-168.46	-138.24
-173.03	-140.99
-176.09	-139.47
-177.92	-135.19
-180.36	-130.62
-183.41	-128.17
-186.77	-129.7
-188.29	-133.97
-187.68	-138.55
-185.24	-140.69
-182.8	-139.47
-180.97	-134.89
-179.14	-128.48
-175.78	-120.24
-168.76	-110.47
-158.08	-98.88
-144.96	-86.06
-130.31	-73.85
-114.75	-62.87
-99.18	-53.41
-83.92	-43.64
-69.27	-31.74
-55.85	-16.17
-43.64	0.92
-33.26	15.26
-25.33	22.28
-20.14	20.45
-17.7	13.12
-16.17	6.71
-14.95	6.41
-12.82	12.82
-10.38	21.97
-8.54	28.99
-8.54	29.3
-10.99	23.8
-14.65	14.95
-17.4	7.93
-17.09	5.49
-14.34	8.54
-10.38	14.65
-8.54	19.23
-10.07	18.31
-14.04	11.9
-18.01	2.44
-20.45	-6.41
-21.06	-12.82
-21.06	-16.78
-20.75	-18.62
-21.06	-19.53
-21.06	-18.92
-20.75	-18.01
-20.75	-17.7
-20.45	-17.4
-20.14	-17.7
-19.53	-17.09
-18.31	-15.56
-17.09	-13.43
-17.09	-11.6
-18.31	-11.6
-19.53	-13.73
-20.14	-17.4
-20.45	-21.06
-19.84	-22.58
-18.92	-20.75
-17.7	-16.17
-16.17	-11.29
-15.26	-8.54
-15.87	-8.24
-17.4	-8.54
-18.31	-6.41
-16.78	0.92
-11.29	14.34
-2.75	32.35
6.1	51.88
11.9	68.97
13.12	79.96
11.29	85.45
10.07	88.5
13.43	94.91
21.67	108.34
33.87	129.7
46.69	155.33
57.68	180.36
65.61	200.2
71.11	212.4
74.46	216.67
75.99	216.67
78.13	216.37
82.4	217.29
89.72	219.73
97.66	221.86
102.54	222.78
101.93	219.42
93.38	207.82
75.38	183.11
48.22	142.21
14.65	90.64
-17.7	38.45
-40.28	-3.97
-48.52	-32.35
-45.47	-49.74
-39.37	-61.65
-36.62	-72.02
-38.45	-80.87
-41.2	-86.67
-42.11	-88.81
-40.89	-88.81
-40.28	-90.03
-42.11	-93.38
-45.47	-97.96
-49.13	-101.62
-50.35	-101.01
-49.44	-94.91
-47.3	-85.75
-45.78	-78.43
-45.17	-76.29
-46.39	-79.96
-48.52	-86.98
-50.05	-93.38
-49.44	-96.44
-46.39	-94.91
-42.11	-91.25
-38.15	-87.59
-35.4	-86.06
-34.18	-83.62
-32.96	-72.33
-29.3	-46.69
-17.09	-7.02
10.99	40.59
60.73	93.38
133.36	159.91
227.66	268.25
345.15	446.78
491.33	695.5
669.86	979.31
875.55	1238.4
1084.29	1413.57
1255.49	1470.95(R)
1345.83	1400.45
1319.58	1207.58
1166.69	904.54
915.53	520.94
626.53	121.46
365.6	-202.64
177.61	-379.03
66.22	-392.15
1.53	-295.72
-47	-183.11
-90.33	-128.17
-120.85	-144.35
-132.14	-193.48
-127.56	-229.19
-119.32	-231.63
-117.49	-211.79
-122.38	-192.87
-128.17	-188.6
-130.31	-196.53
-129.39	-207.21
-127.87	-213.93
-128.17	-215.45
-130.92	-212.71
-134.89	-207.21
-137.94	-201.72
-138.85	-199.58
-136.41	-201.72
-132.45	-205.99
-128.78	-208.44
-126.34	-206.3
-125.12	-200.5
-124.21	-194.09
-124.21	-190.43
-124.51	-190.73
-126.04	-193.18
-128.17	-194.7
-129.39	-193.79
-129.09	-191.35
-128.17	-189.21
-127.87	-187.38
-128.17	-184.63
-129.7	-179.44
-130.92	-172.73
-132.14	-167.85
-133.36	-167.85
-134.89	-172.42
-136.41	-177
-137.94	-177.31
-139.77	-173.03
-141.91	-168.15
-144.96	-167.85
-148.62	-172.12
-152.59	-178.53
-156.25	-182.5
-159.61	-182.5
-163.27	-179.75
-166.93	-177.31
-170.59	-177.61
-174.26	-180.05
-177	-182.8
-178.53	-183.72
-178.83	-181.58
-177.61	-176.7
-175.17	-170.9
-171.81	-165.71
-167.85	-161.74
-162.66	-158.39
-156.25	-153.5
-148.01	-146.18
-137.63	-135.19
-124.82	-122.07
-110.17	-107.73
-95.21	-93.99
-80.57	-81.18
-67.14	-68.66
-54.63	-55.85
-43.03	-43.33
-32.04	-32.04
-22.58	-24.41
-15.56	-20.75
-12.21	-18.92
-11.6	-16.78
-12.51	-13.12
-14.04	-9.77
-14.65	-9.46
-14.04	-12.21
-12.51	-16.17
-10.38	-17.4
-8.54	-14.95
-7.93	-10.07
-9.46	-6.1
-11.9	-4.88
-13.73	-6.41
-13.73	-10.68
-13.12	-17.4
-12.51	-25.02
-12.21	-30.52
-11.29	-32.04
-10.38	-29.3
-9.46	-26.55
-9.77	-27.16
-10.99	-31.74
-11.6	-37.84
-11.6	-41.2
-10.68	-40.89
-10.38	-38.76
-10.68	-37.23
-10.38	-36.62
-9.16	-35.4
-6.71	-32.65
-4.27	-30.21
-3.36	-29.3
-4.27	-31.43
-6.1	-34.48
-7.02	-35.71
-6.41	-34.79
-4.27	-33.26
-2.75	-33.57
-2.44	-35.1
-3.36	-35.71
-3.66	-32.96
-2.44	-25.33
0	-13.73
2.75	-0.31
4.58	13.12
5.19	25.94
6.1	37.84
7.63	49.13
9.77	59.51
13.12	68.97
17.7	77.51
25.02	87.59
36.01	102.23
48.52	122.38
60.73	146.79
69.89	171.81
74.77	191.65
75.07	202.64
73.85	206.3
73.85	206.3
77.21	205.69
84.23	205.99
92.77	206.6
98.27	205.99
97.96	202.33
90.94	193.79
77.82	175.78
58.29	144.04
33.26	97.96
5.49	43.03
-19.84	-11.9
-36.01	-56.46
-40.89	-85.45
-37.54	-100.1
-32.96	-104.68
-32.04	-104.98
-35.1	-104.37
-38.45	-105.29
-39.98	-108.03
-38.76	-112
-36.32	-116.88
-33.87	-121.77
-32.65	-125.73
-33.57	-127.87
-36.93	-128.48
-42.42	-128.17
-46.69	-128.48
-48.22	-128.17
-46.39	-126.65
-43.03	-123.9
-40.89	-121.15
-40.89	-120.54
-41.5	-122.07
-40.89	-122.68
-37.84	-120.24
-32.65	-114.75
-27.16	-105.29
-22.58	-90.33
-19.53	-66.53
-16.17	-32.65
-5.19	11.29
24.11	67.44
80.57	145.87
169.68	270.08
290.83	463.87
440.98	724.79
614.93	1018.98
805.97	1287.23
997.01	1470.03
1156.31	1529.24(R)
1247.25	1451.72
1237.79	1243.9
1115.11	926.82
899.66	534.97
641.48	131.53
397.64	-199.28
209.66	-391.85
88.2	-427.55
14.65	-348.82
-35.4	-239.26
-74.16	-175.17
-100.4	-180.36
-111.39	-226.44
-111.39	-267.94
-109.86	-278.32
-112.92	-262.76
-120.54	-243.84
-127.26	-237.73
-128.48	-243.53
-125.43	-250.55
-121.15	-251.77
-119.02	-249.33
-119.93	-247.8
-122.68	-247.5
-124.51	-245.97
-122.68	-239.87
-118.1	-230.71
-113.53	-223.08
-112.92	-220.95
-115.97	-224.91
-120.54	-231.32
-123.9	-235.6
-124.21	-234.99
-122.99	-231.32
-122.07	-226.44
-121.77	-221.25
-122.07	-216.37
-122.38	-212.4
-122.68	-210.57
-123.6	-213.32
-125.12	-219.12
-126.95	-224.91
-127.26	-227.36
-126.04	-224.3
-125.12	-217.29
-125.12	-210.27
-126.95	-206.6
-129.7	-206.91
-132.75	-209.66
-135.5	-211.49
-138.55	-210.27
-142.52	-205.99
-147.4	-202.33
-153.2	-203.25
-158.69	-209.96
-163.88	-218.51
-168.15	-224
-170.29	-222.47
-171.2	-214.84
-171.2	-205.69
-172.12	-199.89
-173.65	-199.58
-175.17	-202.94
-174.26	-206.6
-170.59	-205.99
-164.49	-198.97
-156.86	-186.77
-149.23	-172.73
-140.69	-161.13
-130.62	-152.89
-118.41	-144.35
-104.68	-131.53
-90.94	-115.05
-78.43	-98.57
-66.22	-86.36
-54.32	-79.35
-43.03	-75.07
-33.57	-69.27
-26.25	-60.73
-21.06	-50.05
-16.17	-38.15
-11.29	-27.77
-7.02	-21.36
-4.58	-20.45
-4.27	-24.11
-4.88	-28.08
-5.19	-28.99
-4.88	-26.25
-6.1	-23.5
-8.85	-24.72
-12.51	-30.52
-14.65	-37.54
-14.04	-40.89
-12.21	-39.06
-10.68	-35.4
-11.6	-33.26
-14.65	-36.01
-18.01	-43.33
-18.62	-51.88
-16.17	-57.98
-12.51	-59.2
-10.07	-56.15
-10.38	-51.57
-12.82	-48.22
-14.65	-46.08
-14.65	-45.47
-12.82	-46.08
-11.29	-48.22
-11.6	-51.88
-12.82	-56.46
-14.04	-60.12
-13.73	-61.04
-13.12	-59.2
-13.43	-55.24
-14.04	-49.74
-14.34	-44.25
-14.04	-39.98
-13.12	-39.67
-12.82	-43.64
-12.51	-50.05
-11.29	-53.41
-8.54	-48.52
-4.88	-33.87
-1.22	-12.51
1.22	10.07
3.66	28.08
6.41	39.37
9.16	44.25
11.29	44.86
12.51	44.56
14.34	48.83
19.53	61.95
29.6	86.06
43.95	117.49
59.2	149.23
70.5	173.95
74.77	188.6
72.63	194.09
68.66	195.31
67.75	195.01
72.63	194.09
80.87	191.96
87.89	188.6
90.03	183.41
86.36	175.48
77.51	161.13
62.26	135.5
39.67	95.52
11.29	45.47
-16.48	-6.1
-35.71	-50.35
-42.11	-82.4
-39.06	-103.15
-33.57	-116.88
-32.04	-125.73
-34.48	-130.62
-37.54	-132.14
-38.76	-130.92
-38.15	-129.39
-38.15	-128.78
-39.67	-129.09
-42.72	-129.39
-45.17	-130
-45.47	-130.62
-43.64	-131.53
-41.2	-132.14
-39.98	-132.14
-40.59	-130.92
-42.11	-129.09
-43.64	-126.95
-43.33	-124.82
-41.5	-122.38
-39.67	-119.63
-38.15	-117.19
-36.62	-115.05
-33.57	-110.17
-29.6	-98.57
-26.86	-75.07
-25.33	-38.76
-20.14	8.54
-1.53	68.97
41.5	150.15
115.97	272.22
223.08	457.15
360.72	707.4
524.29	994.26
707.09	1265.87
896	1464.54
1065.37	1550.60(R)
1181.64	1506.96
1210.63	1333.62
1130.37	1043.09
946.96	662.54
701.6	245.06
453.19	-123.9
251.16	-364.38
116.58	-440.37
36.62	-379.94
-17.7	-262.45
-63.48	-174.56
-100.1	-158.08
-121.15	-196.23
-125.43	-242.61
-120.85	-262.45
-116.88	-251.77
-118.1	-230.71
-122.68	-218.51
-127.56	-219.73
-130.62	-225.22
-132.14	-226.44
-132.14	-222.78
-130.92	-218.2
-130.31	-217.59
-130.31	-220.03
-130.92	-223.08
-131.84	-222.17
-131.84	-216.98
-131.53	-209.66
-130.62	-204.16
-129.39	-203.55
-127.56	-205.99
-125.73	-208.13
-124.82	-206.6
-125.73	-201.11
-128.17	-193.79
-130.92	-187.99
-132.45	-184.94
-133.36	-184.94
-133.67	-186.46
-135.5	-186.77
-138.24	-184.94
-141.3	-180.66
-142.21	-174.87
-140.99	-169.98
-138.85	-168.76
-139.16	-172.12
-143.43	-178.22
-149.84	-183.41
-155.64	-185.24
-158.69	-182.8
-159.3	-178.22
-159.91	-173.03
-161.74	-168.76
-164.79	-164.79
-166.93	-162.05
-169.07	-160.83
-172.12	-162.66
-177	-166.63
-183.11	-170.59
-187.99	-172.12
-189.51	-170.59
-186.77	-167.24
-181.58	-162.96
-176.7	-158.39
-173.34	-152.89
-170.29	-144.96
-166.02	-135.19
-158.69	-124.82
-147.71	-114.44
-134.28	-103.45
-120.85	-90.94
-108.03	-76.29
-95.21	-61.34
-82.4	-48.22
-69.58	-38.15
-57.37	-29.6
-47.61	-20.45
-40.28	-9.46
-35.4	2.44
-31.43	12.21
-28.38	17.4
-25.63	17.7
-24.11	15.56
-23.5	14.04
-23.19	15.26
-23.5	18.62
-23.5	21.67
-23.5	22.28
-23.8	18.62
-24.41	12.21
-24.72	5.8
-25.02	1.53
-25.94	0
-28.08	0
-29.91	0.61
-29.91	2.14
-27.47	3.66
-23.8	5.19
-21.67	4.88
-22.58	2.14
-26.55	-2.44
-29.91	-6.41
-31.43	-8.24
-30.82	-7.32
-29.3	-5.19
-28.08	-3.05
-28.08	-3.36
-29.3	-6.1
-31.43	-10.68
-33.57	-14.95
-34.79	-18.01
-35.1	-18.31
-33.87	-16.17
-31.74	-13.12
-29.91	-10.38
-29.3	-9.46
-29.6	-10.07
-31.13	-11.6
-32.96	-12.51
-33.57	-11.6
-32.35	-7.93
-29.6	-0.61
-25.63	10.99
-21.36	26.25
-17.09	43.33
-13.43	58.9
-10.68	70.5
-9.16	78.13
-7.93	83.92
-6.41	90.94
-1.83	103.15
6.71	121.15
19.84	143.43
	
